Ev[MeV]	Aeff[MeV-2]
1.816	-0.0000000000
1.916	-0.0000000000
2.016	-0.0000000000
2.116	-0.0000000000
2.216	-0.0000000000
2.316	-0.0000000000
2.416	-0.0000000000
2.516	-0.0000000000
2.616	-0.0000000000
2.716	-0.0000000000
2.816	-0.0000000000
2.916	-0.0000000000
3.016	-0.0000000000
3.116	-0.0000000000
3.216	-0.0000000000
3.316	-0.0000000000
3.416	-0.0000000000
3.516	-0.0000000000
3.616	-0.0000000000
3.716	-0.0000000000
3.816	-0.0000000000
3.916	146.6586790139
4.016	3794.4526429467
4.116	14687.3584779759
4.216	41148.1182508592
4.316	97533.7457336670
4.416	206661.6548952300
4.516	402380.2190382882
4.616	732011.0187142560
4.716	1258368.1915828900
4.816	2061085.0101220419
4.916	3237043.0312024737
5.016	4899791.4919471024
5.116	7177947.4639928658
5.216	10212664.7219999414
5.316	14154338.9412192237
5.416	19158771.2143246867
5.516	25383038.4546847455
5.616	32981319.6857183129
5.716	42100906.0484279916
5.816	52878585.6639554799
5.916	65437548.6786849648
6.016	79884908.7719974965
6.116	96309889.9204071462
6.216	114782684.7730025947
6.316	135353955.7723038793
6.416	158054923.1570340991
6.516	182897965.2816485763
6.616	209877645.6803171635
6.716	238972076.9608624279
6.816	270144532.6887912750
6.916	303345223.6099599600
7.016	338513162.6231164932
7.116	375578052.7474884391
7.216	414462143.0112038851
7.316	455082007.9786341190
7.416	497350216.9891170263
7.516	541176868.7145446539
7.616	586470975.1183317900
7.716	633141686.1931800842
7.816	681099352.9357711077
7.916	730256430.9209680557
8.016	780528230.6441018581
8.116	831833523.6200014353
8.216	884095015.1844466925
8.316	937239696.1685513258
8.416	991199086.2346336842
8.516	1045909381.7933696508
8.616	1101311521.1730649471
8.716	1157351179.1787455082
8.816	1213978702.4413523674
8.916	1271148996.0857787132
9.016	1328821371.2959282398
9.116	1386959362.3702816963
9.216	1445530520.8780710697
9.316	1504506193.5698826313
9.416	1563861289.7875769138
9.516	1623574043.2677640915
9.616	1683625772.4515750408
9.716	1744000642.7023534775
9.816	1804685433.1976456642
9.916	1865669310.6945629120
10.016	1926943611.8746325970
10.116	1988501635.5419847965
10.216	2050338445.5810918808
10.316	2112450685.2654600143
10.416	2174836403.2454133034
10.516	2237494891.3257265091
10.616	2300426533.9638309479
10.716	2363632669.2776660919
10.816	2427115461.2378740311
10.916	2490877782.6337952614
11.016	2554923108.3374705315
11.116	2619255418.3460416794
11.216	2683879110.0520243645
11.316	2748798919.1771969795
11.416	2814019848.7992110252
11.516	2879547105.9036316872
11.616	2945386044.9062886238
11.716	3011542117.6049294472
11.816	3078020829.0406336784
11.916	3144827698.7716088295
12.016	3211968227.0883502960
12.116	3279447865.7242751122
12.216	3347271992.6442112923
12.316	3415445890.5190973282
12.416	3483974728.5246286392
12.516	3552863547.1249432564
12.616	3622117245.5312752724
12.716	3691740571.5471549034
12.816	3761738113.5383572578
12.916	3832114294.2852978706
13.016	3902873366.4989404678
13.116	3974019409.7990093231
13.216	4045556328.9735922813
13.316	4117487853.3554286957
13.416	4189817537.1658120155
13.516	4262548760.6928100586
13.616	4335684732.1832914352
13.716	4409228490.3410387039
13.816	4483182907.3340911865
13.916	4557550692.2262496948
14.016	4632334394.7557554245
14.116	4707536409.3933992386
14.216	4783158979.6205511093
14.316	4859204202.3739013672
14.416	4935674032.6115980148
14.516	5012570287.9587945938
14.616	5089894653.3988122940
14.716	5167648685.9788198471
14.816	5245833819.5035324097
14.916	5324451369.1945476532
15.016	5403502536.2963562012
15.116	5482988412.6127576828
15.216	5562909984.9597873688
15.316	5643268139.5244998932
15.416	5724063666.1202888489
15.516	5805297262.3316707611
15.616	5886969537.5428390503
15.716	5969081016.8455610275
15.816	6051632144.8238887787
15.916	6134623289.2136774063
16.016	6218054744.4359359741
16.116	6301926735.0035638809
16.216	6386239418.8024320602
16.316	6470992890.2483339310
16.416	6556187183.3199157715
16.516	6641822274.4716196060
16.616	6727898085.4274139404
16.716	6814414485.8591756821
16.816	6901371295.9514265060
16.916	6988768288.8566360474
17.016	7076605193.0436687469
17.116	7164881694.5431013107
17.216	7253597439.0917215347
17.316	7342752034.1813917160
17.416	7432345051.0141630173
17.516	7522376026.3677358627
17.616	7612844464.3745756149
17.716	7703749838.2179756165
17.816	7795091591.7487888336
17.916	7886869141.0249013901
18.016	7979081875.7782545090
18.116	8071729160.8111295700
18.216	8164810337.3257989883
18.316	8258324724.1891393661
18.416	8352271619.1367511749
18.516	8446650299.9176435471
18.616	8541460025.3836097717
18.716	8636700036.5244846344
18.816	8732369557.4528312683
18.916	8828467796.3402786255
19.016	8924993946.3066959381
19.116	9021947186.2661075592
19.216	9119326681.7300186157
19.316	9217131585.5713081360
19.416	9315361038.7489280701
19.516	9414014170.9978790283
19.616	9513090101.4832496643
19.716	9612587939.4226570129
19.816	9712506784.6765232086
19.916	9812845728.3094348907
20.016	9913603853.1226425171
20.116	10014780234.1608562469
20.216	10116373939.1920623779
20.316	10218384029.1643505096
20.416	10320809558.6396484375
20.516	10423649576.2049636841
20.616	10526903124.8633975983
20.716	10630569242.4054908752
20.816	10734646961.7619037628
20.916	10839135311.3375892639
21.016	10944033315.3305339813
21.116	11049339994.0329704285
21.216	11155054364.1187610626
21.316	11261175438.9150829315
21.416	11367702228.6612911224
21.516	11474633740.7546806335
21.616	11581968979.9835166931
21.716	11689706948.7485923767
21.816	11797846647.2736072540
21.916	11906387073.8054161072
22.016	12015327224.8032264709
22.116	12124666095.1193046570
22.216	12234402678.1701450348
22.316	12344535966.0993289948
22.416	12455064949.9318618774
22.516	12565988619.7209281921
22.616	12677305964.6878566742
22.716	12789015973.3541336060
22.816	12901117633.6674118042
22.916	13013609933.1214370728
23.016	13126491858.8692283630
23.116	13239762397.8315753937
23.216	13353420536.7990894318
23.316	13467465262.5302066803
23.416	13581895561.8436241150
23.516	13696710421.7062206268
23.616	13811908829.3169345856
23.716	13927489772.1859569550
23.816	14043452238.2108917236
23.916	14159795215.7476997375
24.016	14276517693.6795310974
24.116	14393618661.4812927246
24.216	14511097109.2815837860
24.316	14628952027.9208431244
24.416	14747182409.0071067810
24.516	14865787244.9690876007
24.616	14984765529.1061973572
24.716	15104116255.6363735199
24.816	15223838419.7415046692
24.916	15343931017.6105766296
25.016	15464393046.4803962708
25.116	15585223504.6747627258
25.216	15706421391.6413211823
25.316	15827985707.9869174957
25.416	15949915455.5106029510
25.516	16072209637.2355709076
25.616	16194867257.4392967224
25.716	16317887321.6820907593
25.816	16441268836.8341865540
25.916	16565010811.1014938354
26.016	16689112254.0502986908
26.116	16813572176.6303825378
26.216	16938389591.1969947815
26.316	17063563511.5318336487
26.416	17189092952.8631172180
26.516	17314976931.8840522766
26.616	17441214466.7710456848
26.716	17567804577.2002754211
26.816	17694746284.3643112183
26.916	17822038610.9867477417
27.016	17949680581.3370170593
27.116	18077671221.2438354492
27.216	18206009558.1082801819
27.316	18334694620.9160690308
27.416	18463725440.2488861084
27.516	18593101048.2956352234
27.616	18722820478.8626403809
27.716	18852882767.3834800720
27.816	18983286950.9280967712
27.916	19114032068.2119522095
28.016	19245117159.6035499573
28.116	19376541267.1329421997
28.216	19508303434.4982643127
28.316	19640402707.0735626221
28.416	19772838131.9143066406
28.516	19905608757.7640495300
28.616	20038713635.0598831177
28.716	20172151815.9380264282
28.816	20305922354.2385559082
28.916	20440024305.5102462769
29.016	20574456727.0147933960
29.116	20709218677.7313117981
29.216	20844309218.3596115112
29.316	20979727411.3237762451
29.416	21115472320.7761497498
29.516	21251543012.5993118286
29.616	21387938554.4097061157
29.716	21524658015.5594406128
29.816	21661700467.1397361755
29.916	21799064981.9819869995
30.016	21936750634.6602249146
30.116	22074756501.4927597046
30.216	22213081660.5441780090
30.316	22351725191.6260719299
30.416	22490686176.2986259460
30.516	22629963697.8721199036
30.616	22769556841.4072036743
30.716	22909464693.7160568237
30.816	23049686343.3629531860
30.916	23190220880.6652069092
31.016	23331067397.6929054260
31.116	23472224988.2698631287
31.216	23613692747.9731254578
31.316	23755469774.1340560913
31.416	23897555165.8373985291
31.516	24039948023.9213027954
31.616	24182647450.9775238037
31.716	24325652551.3510398865
31.816	24468962431.1391716003
31.916	24612576198.1916580200
32.016	24756492962.1096801758
32.116	24900711834.2458038330
32.216	25045231927.7026214600
32.316	25190052357.3323059082
32.416	25335172239.7359466553
32.516	25480590693.2622146606
32.616	25626306838.0066184998
32.716	25772319795.8108139038
32.816	25918628690.2608642578
32.916	26065232646.6866645813
33.016	26212130792.1603584290
33.116	26359322255.4953575134
33.216	26506806167.2453422546
33.316	26654581659.7021217346
33.416	26802647866.8950233459
33.516	26951003924.5891990662
33.616	27099648970.2840919495
33.716	27248582143.2123794556
33.816	27397802584.3374595642
33.916	27547309436.3534393311
34.016	27697101843.6821441650
34.116	27847178952.4719657898
34.216	27997539910.5966606140
34.316	28148183867.6531982422
34.416	28299109974.9599571228
34.516	28450317385.5552940369
34.616	28601805254.1959037781
34.716	28753572737.3545761108
34.816	28905618993.2186775208
34.916	29057943181.6882019043
35.016	29210544464.3744125366
35.116	29363422004.5971565247
35.216	29516574967.3835716248
35.316	29670002519.4657402039
35.416	29823703829.2796440125
35.516	29977678066.9617958069
35.616	30131924404.3487281799
35.716	30286442014.9740257263
35.816	30441230074.0669250488
35.916	30596287758.5498542786
36.016	30751614247.0367965698
36.116	30907208719.8309173584
36.216	31063070358.9231224060
36.316	31219198347.9891967773
36.416	31375591872.3880081177
36.516	31532250119.1603012085
36.616	31689172277.0249214172
36.716	31846357536.3783607483
36.816	32003805089.2915115356
36.916	32161514129.5083580017
37.016	32319483852.4431037903
37.116	32477713455.1788177490
37.216	32636202136.4646072388
37.316	32794949096.7138404846
37.416	32953953538.0021781921
37.516	33113214664.0643730164
37.616	33272731680.2939376831
37.716	33432503793.7391929626
37.816	33592530213.1019401550
37.916	33752810148.7350616455
38.016	33913342812.6408042908
38.116	34074127418.4677467346
38.216	34235163181.5092582703
38.316	34396449318.7006988525
38.416	34557985048.6182632446
38.516	34719769591.4755859375
38.616	34881802169.1219100952
38.716	35044082005.0405578613
38.816	35206608324.3456497192
38.916	35369380353.7804565430
39.016	35532397321.7149124146
39.116	35695658458.1438446045
39.216	35859162994.6842803955
39.316	36022910164.5733642578
39.416	36186899202.6659622192
39.516	36351129345.4326705933
39.616	36515599830.9575347900
39.716	36680309898.9357070923
39.816	36845258790.6708450317
39.916	37010445749.0737686157
40.016	37175870018.6592864990
40.116	37341530845.5443649292
40.216	37507427477.4459991455
40.316	37673559163.6785964966
40.416	37839925155.1521224976
40.516	38006524704.3691711426
40.616	38173357065.4237518311
40.716	38340421493.9979324341
40.816	38507717247.3602218628
40.916	38675243584.3632202148
41.016	38842999765.4412460327
41.116	39010985052.6082839966
41.216	39179198709.4551010132
41.316	39347640001.1478347778
41.416	39516308194.4253463745
41.516	39685202557.5968551636
41.616	39854322360.5392913818
41.716	40023666874.6963806152
41.816	40193235373.0747528076
41.916	40363027130.2427749634
42.016	40533041422.3278808594
42.116	40703277527.0140075684
42.216	40873734723.5405044556
42.316	41044412292.6980743408
42.416	41215309516.8279342651
42.516	41386425679.8194351196
42.616	41557760067.1067962646
42.716	41729311965.6676330566
42.816	41901080664.0212631226
42.916	42073065452.2249221802
43.016	42245265621.8725891113
43.116	42417680466.0924911499
43.216	42590309279.5448532104
43.316	42763151358.4198608398
43.416	42936206000.4344406128
43.516	43109472504.8314285278
43.616	43282950172.3762054443
43.716	43456638305.3550491333
43.816	43630536207.5725631714
43.916	43804643184.3492431641
44.016	43978958542.5201721191
44.116	44153481590.4314117432
44.216	44328211637.9389343262
44.316	44503147996.4055328369
44.416	44678289978.6991882324
44.516	44853636899.1904754639
44.616	45029188073.7502593994
44.716	45204942819.7478256226
44.816	45380900456.0482559204
44.916	45557060303.0103149414
45.016	45733421682.4842987061
45.116	45909983917.8097305298
45.216	46086746333.8132019043
45.316	46263708256.8057098389
45.416	46440869014.5809402466
45.516	46618227936.4132385254
45.616	46795784353.0545120239
45.716	46973537596.7324142456
45.816	47151487001.1485443115
45.916	47329631901.4757766724
46.016	47507971634.3558349609
46.116	47686505537.8977432251
46.216	47865232951.6747970581
46.316	48044153216.7230987549
46.416	48223265675.5387191772
46.516	48402569672.0758361816
46.616	48582064551.7445220947
46.716	48761749661.4080886841
46.816	48941624349.3816909790
46.916	49121687965.4290313721
47.016	49301939860.7614974976
47.116	49482379388.0344924927
47.216	49663005901.3462829590
47.316	49843818756.2351760864
47.416	50024817309.6780700684
47.516	50206000920.0873031616
47.616	50387368947.3090362549
47.716	50568920752.6209030151
47.816	50750655698.7298355103
47.916	50932573149.7700576782
48.016	51114672471.3000411987
48.116	51296953030.3017959595
48.216	51479414195.1771621704
48.316	51662055335.7467803955
48.416	51844875823.2469940186
48.516	52027875030.3283767700
48.616	52211052331.0531158447
48.716	52394407100.8929595947
48.816	52577938716.7270812988
48.916	52761646556.8397369385
49.016	52945530000.9183731079
49.116	53129588430.0512008667
49.216	53313821226.7247695923
49.316	53498227774.8226928711
49.416	53682807459.6225738525
49.516	53867559667.7940673828
49.616	54052483787.3970260620
49.716	54237579207.8789978027
49.816	54422845320.0729675293
49.916	54608281516.1956481934
50.016	54793887189.8452072144
50.116	54979661735.9985427856
50.216	55165604551.0097122192
50.316	55351715032.6075134277
50.416	55537992579.8938369751
50.516	55724436593.3405990601
50.616	55911046474.7882919312
50.716	56097821627.4435424805
50.816	56284761455.8771514893
50.916	56471865366.0218124390
51.016	56659132765.1698837280
51.116	56846563061.9714813232
51.216	57034155666.4321212769
51.316	57221909989.9109191895
51.416	57409825445.1175537109
51.516	57597901446.1117553711
51.616	57786137408.2993469238
51.716	57974532748.4313278198
51.816	58163086884.6014022827
51.916	58351799236.2436370850
52.016	58540669224.1308898926
52.116	58729696270.3718414307
52.216	58918879798.4094619751
52.316	59108219233.0189971924
52.416	59297714000.3056945801
52.516	59487363527.7020568848
52.616	59677167243.9670486450
52.716	59867124579.1825485229
52.816	60057234964.7522811890
52.916	60247497833.3992843628
53.016	60437912619.1639022827
53.116	60628478757.4012527466
53.216	60819195684.7799377441
53.316	61010062839.2791900635
53.416	61201079660.1873779297
53.516	61392245588.0994949341
53.616	61583560064.9147644043
53.716	61775022533.8358383179
53.816	61966632439.3649826050
53.916	62158389227.3032150269
54.016	62350292344.7475509644
54.116	62542341240.0896682739
54.216	62734535363.0129241943
54.316	62926874164.4907989502
54.416	63119357096.7845840454
54.516	63311983613.4418258667
54.616	63504753169.2933425903
54.716	63697665220.4518127441
54.816	63890719224.3097381592
54.916	64083914639.5369491577
55.016	64277250926.0787429810
55.116	64470727545.1539154053
55.216	64664343959.2523040771
55.316	64858099632.1337280273
55.416	65051994028.8243179321
55.516	65246026615.6159210205
55.616	65440196860.0633697510
55.716	65634504230.9823760986
55.816	65828948198.4477615356
55.916	66023528233.7912216187
56.016	66218243809.5991821289
56.116	66413094399.7112579346
56.216	66608079479.2172698975
56.316	66803198524.4561462402
56.416	66998451013.0135040283
56.516	67193836423.7194213867
56.616	67389354236.6464843750
56.716	67585003933.1080703735
56.816	67780784995.6560363770
56.916	67976696908.0785598755
57.016	68172739155.3982620239
57.116	68368911223.8703689575
57.216	68565212600.9805068970
57.316	68761642775.4422607422
57.416	68958201237.1957397461
57.516	69154887477.4057312012
57.616	69351700988.4588012695
57.716	69548641263.9620971680
57.816	69745707798.7407989502
57.916	69942900088.8364410400
58.016	70140217631.5048370361
58.116	70337659925.2136383057
58.216	70535226469.6414337158
58.316	70732916765.6740264893
58.416	70930730315.4042816162
58.516	71128666622.1284332275
58.616	71326725190.3459014893
58.716	71524905525.7552337646
58.816	71723207135.2535705566
58.916	71921629526.9345550537
59.016	72120172210.0856170654
59.116	72318834695.1865386963
59.216	72517616493.9070434570
59.316	72716517119.1053314209
59.416	72915536084.8258514404
59.516	73114672906.2972412109
59.616	73313927099.9301147461
59.716	73513298183.3156433105
59.816	73712785675.2235107422
59.916	73912389095.5992431641
60.016	74112107965.5626220703
60.116	74311941807.4067382812
60.216	74511890144.5939483643
60.316	74711952501.7555236816
60.416	74912128404.6892089844
60.516	75112417380.3575439453
60.616	75312818956.8849792480
60.716	75513332663.5567321777
60.816	75713958030.8169708252
60.916	75914694590.2662506104
61.016	76115541874.6596374512
61.116	76316499417.9053649902
61.216	76517566755.0619659424
61.316	76718743422.3374786377
61.416	76920028957.0862426758
61.516	77121422897.8074340820
61.616	77322924784.1440734863
61.716	77524534156.8793945312
61.816	77726250557.9361267090
61.916	77928073530.3740692139
62.016	78130002618.3883972168
62.116	78332037367.3075256348
62.216	78534177323.5911712646
62.316	78736422034.8283996582
62.416	78938771049.7362670898
62.516	79141223918.1571044922
62.616	79343780191.0565948486
62.716	79546439420.5229187012
62.816	79749201159.7633361816
62.916	79952064963.1035614014
63.016	80155030385.9849090576
63.116	80358096984.9632568359
63.216	80561264317.7060089111
63.316	80764531942.9912414551
63.416	80967899420.7051391602
63.516	81171366311.8409423828
63.616	81374932178.4954833984
63.716	81578596583.8689117432
63.816	81782359092.2617492676
63.916	81986219269.0738067627
64.016	82190176680.8011932373
64.116	82394230895.0355987549
64.216	82598381480.4611968994
64.316	82802628006.8545074463
64.416	83006970045.0804901123
64.516	83211407167.0917053223
64.616	83415938945.9266967773
64.716	83620564955.7074890137
64.816	83825284771.6376800537
64.916	84030097970.0013122559
65.016	84235004128.1603851318
65.116	84440002824.5528411865
65.216	84645093638.6909637451
65.316	84850276151.1598205566
65.416	85055549943.6148681641
65.516	85260914598.7802124023
65.616	85466369700.4468383789
65.716	85671914833.4708862305
65.816	85877549583.7716522217
65.916	86083273538.3292541504
66.016	86289086285.1835632324
66.116	86494987413.4322814941
66.216	86700976513.2282104492
66.316	86907053175.7784881592
66.416	87113216993.3419342041
66.516	87319467559.2278747559
66.616	87525804467.7935485840
66.716	87732227314.4430694580
66.816	87938735695.6246185303
66.916	88145329208.8297882080
67.016	88352007452.5908508301
67.116	88558770026.4791870117
67.216	88765616531.1031799316
67.316	88972546568.1072692871
67.416	89179559740.1690979004
67.516	89386655650.9982147217
67.616	89593833905.3340301514
67.716	89801094108.9443511963
67.816	90008435868.6231079102
67.916	90215858792.1887664795
68.016	90423362488.4823303223
68.116	90630946567.3658905029
68.216	90838610639.7206726074
68.316	91046354317.4446868896
68.416	91254177213.4521026611
68.516	91462078941.6701049805
68.616	91670059117.0378570557
68.716	91878117355.5049896240
68.816	92086253274.0284729004
68.916	92294466490.5723571777
69.016	92502756624.1051483154
69.116	92711123294.5981445312
69.216	92919566123.0236968994
69.316	93128084731.3536529541
69.416	93336678742.5565185547
69.516	93545347780.5975494385
69.616	93754091470.4351654053
69.716	93962909438.0198211670
69.816	94171801310.2925109863
69.916	94380766715.1830749512
70.016	94589805281.6075439453
