cal_S_function with E_thr = 10.0 MeV
T[MeV]	cal_S	cal_S_error
0.0	0.0	0.0
0.100	2.0307690356e-41	3.3652407298e-50
0.110	5.1026576026e-39	3.2785314033e-46
0.120	5.6599678097e-37	1.2335535769e-45
0.130	3.3027039801e-35	1.4083136271e-42
0.140	1.1519477018e-33	5.8265634049e-41
0.150	2.6420535455e-32	1.0309005583e-39
0.160	4.2856887626e-31	1.2664623666e-38
0.170	5.2029661057e-30	1.3218448808e-37
0.180	4.9436363809e-29	1.2288145054e-36
0.190	3.8102760614e-28	9.9126734349e-36
0.200	2.4523960545e-27	6.8552412921e-35
0.210	1.3498619535e-26	4.0906057469e-34
0.220	6.4806276054e-26	2.1239207162e-33
0.230	2.7588715514e-25	9.7615143817e-33
0.240	1.0560001163e-24	4.0356053759e-32
0.250	3.6773494920e-24	1.5193621760e-31
0.260	1.1768501855e-23	5.2363998633e-31
0.270	3.4913049204e-23	3.2701802102e-29
0.280	9.6736887125e-23	5.0119849714e-30
0.290	2.5198102493e-22	1.4153318977e-29
0.300	6.2057195864e-22	3.7579235651e-29
0.310	1.4522479043e-21	9.4451046515e-29
0.320	3.2436419117e-21	2.2536142884e-28
0.330	6.9417415403e-21	5.0935995115e-28
0.340	1.4284289922e-20	1.0915316817e-27
0.350	2.8349930302e-20	2.2544464014e-27
0.360	5.4419637854e-20	4.4202569369e-27
0.370	1.0128701502e-19	8.3537536115e-27
0.380	1.8319893949e-19	1.5257508942e-26
0.390	3.2266017808e-19	2.6642349704e-26
0.400	5.5439596153e-19	4.8441040316e-25
0.410	9.3083465169e-19	4.7741713908e-25
0.420	1.5295485777e-18	4.1344888830e-25
0.430	2.4631723087e-18	2.8780476530e-25
0.440	3.8924049838e-18	1.1762009642e-25
0.450	6.0427931668e-18	1.1163489941e-26
0.460	9.2260825999e-18	2.9269868127e-25
0.470	1.3867018739e-17	9.2702053448e-25
0.480	2.0536565224e-17	2.0071530229e-24
0.490	2.9992594469e-17	3.6519618827e-24
0.500	4.3229183463e-17	5.9952579889e-24
0.510	6.1535718817e-17	9.1911509311e-24
0.520	8.6567076552e-17	1.3402075886e-23
0.530	1.2042619260e-16	1.8799409104e-23
0.540	1.6576037848e-16	2.5561625050e-23
0.550	2.2587276201e-16	3.3872810911e-23
0.560	3.0485024498e-16	4.3921674138e-23
0.570	4.0770936783e-16	5.5901201892e-23
0.580	5.4056145533e-16	7.0009133738e-23
0.590	7.1079838815e-16	8.6449409612e-23
0.600	9.2730030196e-16	1.0543476767e-22
0.610	1.2006664606e-15	1.2719062800e-22
0.620	1.5434704829e-15	1.5196042642e-22
0.630	1.9705410232e-15	1.8001288486e-22
0.640	2.4992689206e-15	2.1163265120e-22
0.650	3.1499417327e-15	2.4717174662e-22
0.660	3.9461064676e-15	2.8702939857e-22
0.670	4.9149612179e-15	3.3167624314e-22
0.680	6.0877762860e-15	3.8167208830e-22
0.690	7.5003452722e-15	4.3768644996e-22
0.700	9.1934664769e-15	5.0052222580e-22
0.710	1.1213454846e-14	5.7114267790e-22
0.720	1.3612684572e-14	6.5070213292e-22
0.730	1.6450162334e-14	7.4049038232e-22
0.740	1.9792131055e-14	8.4173040160e-22
0.750	2.3712703933e-14	9.5680023902e-22
0.760	2.8294528380e-14	1.0880064740e-21
0.770	3.3629479430e-14	1.2380668297e-21
0.780	3.9819382034e-14	1.4101700181e-21
0.790	4.6976761599e-14	1.6080419995e-21
0.800	5.5225622019e-14	1.8360191939e-21
0.810	6.4702250365e-14	2.0988401846e-21
0.820	7.5556047335e-14	2.4010482687e-21
0.830	8.7950382489e-14	2.7500491780e-21
0.840	1.0206347322e-13	3.1532585971e-21
0.850	1.1808928638e-13	3.6191328781e-21
0.860	1.3623846140e-13	4.1572857521e-21
0.870	1.5673925376e-13	4.7786147326e-21
0.880	1.7983849751e-13	5.4954392811e-21
0.890	2.0580258569e-13	6.3216150374e-21
0.900	2.3491846730e-13	7.2727711905e-21
0.910	2.6749465956e-13	8.3664552018e-21
0.920	3.0386227420e-13	9.6223044955e-21
0.930	3.4437605636e-13	1.1062269566e-20
0.940	3.8941543493e-13	1.2710845398e-20
0.950	4.3938558299e-13	1.4595319504e-20
0.960	4.9471848695e-13	1.6746047564e-20
0.970	5.5587402333e-13	1.9196753551e-20
0.980	6.2334104169e-13	2.1984861076e-20
0.990	6.9763845262e-13	2.5151856721e-20
1.000	7.7931631958e-13	2.8725066679e-20
1.010	8.6895695328e-13	3.2736623687e-20
1.020	9.6717600761e-13	3.7261907153e-20
1.030	1.0746235758e-12	4.2358929865e-20
1.040	1.1919852861e-12	4.8082391913e-20
1.050	1.3199833952e-12	5.4498452977e-20
1.060	1.4593778792e-12	6.1628997427e-20
1.070	1.6109675209e-12	6.9595424460e-20
1.080	1.7755909921e-12	7.8487374383e-20
1.090	1.9541279300e-12	8.8284344783e-20
1.100	2.1475000081e-12	9.9122417545e-20
1.110	2.3566719989e-12	1.1114232790e-19
1.120	2.5826528286e-12	1.2445646799e-19
1.130	2.8264966239e-12	1.3918677148e-19
1.140	3.0893037483e-12	1.5517980755e-19
1.150	3.3722218289e-12	1.7267590818e-19
1.160	3.6764467724e-12	1.9189926073e-19
1.170	4.0032237694e-12	2.1268931635e-19
1.180	4.3538482879e-12	2.3522629520e-19
1.190	4.7296670533e-12	2.5982673979e-19
1.200	5.1320790167e-12	2.8665035745e-19
1.210	5.5625363095e-12	3.1505722180e-19
1.220	6.0225451849e-12	3.4571158208e-19
1.230	6.5136669451e-12	3.7889773906e-19
1.240	7.0375188549e-12	4.1478727476e-19
1.250	7.5957750404e-12	4.5356118718e-19
1.260	8.1901673739e-12	4.9541002430e-19
1.270	8.8224863426e-12	5.4053483225e-19
1.280	9.4945819042e-12	5.8914795573e-19
1.290	1.0208364326e-11	6.4147280826e-19
1.300	1.0965805007e-11	6.9612242969e-19
1.310	1.1768937291e-11	7.5205549946e-19
1.320	1.2619857258e-11	8.1150620059e-19
1.330	1.3520724499e-11	8.7480050873e-19
1.340	1.4473762884e-11	9.4212925699e-19
1.350	1.5481261307e-11	1.0136902224e-18
1.360	1.6545574416e-11	1.0896884840e-18
1.370	1.7669123332e-11	1.1703371442e-18
1.380	1.8854396348e-11	1.2558586927e-18
1.390	2.0103949616e-11	1.3464892188e-18
1.400	2.1420407820e-11	1.4425252550e-18
1.410	2.2806464827e-11	1.5442149435e-18
1.420	2.4264884331e-11	1.6449139393e-18
1.430	2.5798500479e-11	1.7481620371e-18
1.440	2.7410218482e-11	1.8565606096e-18
1.450	2.9103015213e-11	1.9702890518e-18
1.460	3.0879939789e-11	2.0895306865e-18
1.470	3.2744114142e-11	2.2144723033e-18
1.480	3.4698733570e-11	2.3453041248e-18
1.490	3.6747067285e-11	2.4822195971e-18
1.500	3.8892458935e-11	2.6244433647e-18
1.510	4.1138327123e-11	2.7672167379e-18
1.520	4.3488165906e-11	2.9160620822e-18
1.530	4.5945545286e-11	3.0711533243e-18
1.540	4.8514111688e-11	3.2326665316e-18
1.550	5.1197588422e-11	3.4007799200e-18
1.560	5.3999776137e-11	3.5756736017e-18
1.570	5.6924553260e-11	3.7564686701e-18
1.580	5.9975876428e-11	3.9372613358e-18
1.590	6.3157780904e-11	4.1219069757e-18
1.600	6.6474380983e-11	4.3078582546e-18
1.610	6.9929870392e-11	4.5004043899e-18
1.620	7.3528522672e-11	4.6996939832e-18
1.630	7.7274691554e-11	4.9006167811e-18
1.640	8.1172811326e-11	5.1056252994e-18
1.650	8.5227397187e-11	5.3174329819e-18
1.660	8.9443045595e-11	5.5361790361e-18
1.670	9.3824434602e-11	5.7579247750e-18
1.680	9.8376324183e-11	5.9842412927e-18
1.690	1.0310355656e-10	6.2176413051e-18
1.700	1.0801105649e-10	6.4541054984e-18
1.710	1.1310383161e-10	6.6966457424e-18
1.720	1.1838697270e-10	6.9460110131e-18
1.730	1.2386565397e-10	7.2027798489e-18
1.740	1.2954513334e-10	7.4670839466e-18
1.750	1.3543075273e-10	7.7390562060e-18
1.760	1.4152793831e-10	8.0188311778e-18
1.770	1.4784220077e-10	8.3065442931e-18
1.780	1.5437913554e-10	8.6023326996e-18
1.790	1.6114442308e-10	8.9063347923e-18
1.800	1.6814382908e-10	9.2186301545e-18
1.810	1.7538320472e-10	9.5393965392e-18
1.820	1.8286848689e-10	9.8687866459e-18
1.830	1.9060569840e-10	1.0206942877e-17
1.840	1.9860094821e-10	1.0554004203e-17
1.850	2.0686043162e-10	1.0910119601e-17
1.860	2.1539043053e-10	1.1274025823e-17
1.870	2.2419731356e-10	1.1638609760e-17
1.880	2.3328753633e-10	1.2012377684e-17
1.890	2.4266764159e-10	1.2395473752e-17
1.900	2.5234425944e-10	1.2788046151e-17
1.910	2.6232410751e-10	1.3190258733e-17
1.920	2.7261399114e-10	1.3602265490e-17
1.930	2.8322080355e-10	1.4024199674e-17
1.940	2.9415152602e-10	1.4456209762e-17
1.950	3.0541322806e-10	1.4898447424e-17
1.960	3.1701306058e-10	2.9531737109e-16
1.970	3.2895828384e-10	2.8311267420e-16
1.980	3.4125622623e-10	2.7096647242e-16
1.990	3.5391431181e-10	2.5889031872e-16
2.000	3.6694005369e-10	2.4689583815e-16
2.010	3.8034105416e-10	2.3499474089e-16
2.020	3.9412500484e-10	2.2319884216e-16
2.030	4.0829968687e-10	2.1152008232e-16
2.040	4.2287297098e-10	1.9997055159e-16
2.050	4.3785281773e-10	1.8856251705e-16
2.060	4.5324727755e-10	1.7730845555e-16
2.070	4.6906449098e-10	1.6622109163e-16
2.080	4.8531268873e-10	1.5531344130e-16
2.090	5.0200019188e-10	1.4459886518e-16
2.100	5.1913541196e-10	1.3409112813e-16
2.110	5.3672685113e-10	1.2380447526e-16
2.120	5.5478310229e-10	1.1375371919e-16
2.130	5.7331284923e-10	1.0395434748e-16
2.140	5.9232486674e-10	9.4422655947e-17
2.150	6.1182802076e-10	8.5175912479e-17
2.160	6.3183126851e-10	7.6232564847e-17
2.170	6.5234365860e-10	6.7612505927e-17
2.180	6.7337433118e-10	5.9337420843e-17
2.190	6.9493251805e-10	5.1431252399e-17
2.200	7.1702754282e-10	4.3920835155e-17
2.210	7.3966882099e-10	3.6836799083e-17
2.220	7.6286586010e-10	3.0214894556e-17
2.230	7.8662825989e-10	2.4098047356e-17
2.240	8.1096571236e-10	1.8539755006e-17
2.250	8.3588800195e-10	1.3610214097e-17
2.260	8.6140500564e-10	9.4089456253e-18
2.270	8.8752669307e-10	6.0971315528e-18
2.280	9.1426312669e-10	4.0338380661e-18
2.290	9.4162446187e-10	5.1708452832e-18
2.300	9.6962094703e-10	8.3318075768e-18
2.310	9.9826292377e-10	1.2537446235e-17
2.320	1.0275608270e-09	1.7571647102e-17
2.330	1.0575251850e-09	2.3317116061e-17
2.340	1.0881666196e-09	2.9696860489e-17
2.350	1.1194958465e-09	3.6655126164e-17
2.360	1.1515236749e-09	4.4148969871e-17
2.370	1.1842610082e-09	5.2143872153e-17
2.380	1.2177188438e-09	6.0611192905e-17
2.390	1.2519082730e-09	6.9526581771e-17
2.400	1.2868404820e-09	7.8868930336e-17
2.410	1.3225267508e-09	8.8619644987e-17
2.420	1.3589784545e-09	9.8762121856e-17
2.430	1.3962070627e-09	1.0928138992e-16
2.440	1.4342241397e-09	1.2016380349e-16
2.450	1.4730413449e-09	1.3139682559e-16
2.460	1.5126704330e-09	1.4296885586e-16
2.470	1.5531232535e-09	1.5486909334e-16
2.480	1.5944117517e-09	1.6708742746e-16
2.490	1.6365479680e-09	1.7961434799e-16
2.500	1.6795440389e-09	1.9244087134e-16
2.510	1.7234121962e-09	2.0555846739e-16
2.520	1.7681647678e-09	2.1895902271e-16
2.530	1.8138141778e-09	2.3260713666e-16
2.540	1.8603729463e-09	2.4649304272e-16
2.550	1.9078536897e-09	2.6063382263e-16
2.560	1.9562691208e-09	2.7502256871e-16
2.570	2.0056320493e-09	2.8965263406e-16
2.580	2.0559553813e-09	3.0451761202e-16
2.590	2.1072521199e-09	3.1961131588e-16
2.600	2.1595353652e-09	3.3492776550e-16
2.610	2.2128183145e-09	3.5046117155e-16
2.620	2.2671142625e-09	3.6620592704e-16
2.630	2.3224366010e-09	3.8215659081e-16
2.640	2.3787988197e-09	3.9830788393e-16
2.650	2.4362145060e-09	4.1465467597e-16
2.660	2.4946973450e-09	4.3119198372e-16
2.670	2.5542611200e-09	4.4791495808e-16
2.680	2.6149197123e-09	4.6481887998e-16
2.690	2.6766871019e-09	4.8189915750e-16
2.700	2.7395773667e-09	4.9915131769e-16
2.710	2.8036046836e-09	5.1657100549e-16
2.720	2.8687833283e-09	5.3415397423e-16
2.730	2.9351276752e-09	5.5189609103e-16
2.740	3.0026521979e-09	5.6979332130e-16
2.750	3.0713714692e-09	5.8784173897e-16
2.760	3.1413001613e-09	6.0603751138e-16
2.770	3.2124530458e-09	6.2437690766e-16
2.780	3.2848449941e-09	6.4285629022e-16
2.790	3.3584909776e-09	6.6147210978e-16
2.800	3.4334060673e-09	6.8022091647e-16
2.810	3.5096054346e-09	6.9909933875e-16
2.820	3.5871043513e-09	7.1810410407e-16
2.830	3.6659181894e-09	7.3723201722e-16
2.840	3.7460624217e-09	7.5647997035e-16
2.850	3.8275526217e-09	7.7584494267e-16
2.860	3.9104044639e-09	7.9532399106e-16
2.870	3.9946337239e-09	8.1491425542e-16
2.880	4.0802562784e-09	8.3461295884e-16
2.890	4.1672881058e-09	8.5441740264e-16
2.900	4.2557452859e-09	8.7432496999e-16
2.910	4.3456440002e-09	8.9433311802e-16
2.920	4.4370005322e-09	9.1443938554e-16
2.930	4.5298312675e-09	9.3464139180e-16
2.940	4.6241526937e-09	9.5493682780e-16
2.950	4.7199814011e-09	9.7532346687e-16
2.960	4.8173340824e-09	9.9579915463e-16
2.970	4.9162275331e-09	1.0163618216e-15
2.980	5.0166786513e-09	1.0370094655e-15
2.990	5.1187044385e-09	1.0577401648e-15
3.000	5.2223219993e-09	1.0785520775e-15
3.010	5.3275485417e-09	1.0994434407e-15
3.020	5.4344013771e-09	1.1204125561e-15
3.030	5.5428979207e-09	1.1414578167e-15
3.040	5.6530556918e-09	1.1625776862e-15
3.050	5.7648923133e-09	1.1837707103e-15
3.060	5.8784255126e-09	1.2050355129e-15
3.070	5.9936731215e-09	1.2263707913e-15
3.080	6.1106530763e-09	1.2477753333e-15
3.090	6.2293834178e-09	1.2692479966e-15
3.100	6.3498822920e-09	1.2907877317e-15
3.110	6.4721679498e-09	1.3123935568e-15
3.120	6.5962587472e-09	1.3340645950e-15
3.130	6.7221731458e-09	1.3558000321e-15
3.140	6.8499297126e-09	1.3775991540e-15
3.150	6.9795471203e-09	1.3994613296e-15
3.160	7.1110441476e-09	1.4213860212e-15
3.170	7.2444396791e-09	1.4433727727e-15
3.180	7.3797527057e-09	1.4654212263e-15
3.190	7.5170023246e-09	1.4875186206e-15
3.200	7.6562077397e-09	1.5096380819e-15
3.210	7.7973882615e-09	1.5318149580e-15
3.220	7.9405633074e-09	1.5540490599e-15
3.230	8.0857524018e-09	1.5763402914e-15
3.240	8.2329751763e-09	1.5986886484e-15
3.250	8.3822513701e-09	1.6210942236e-15
3.260	8.5336008295e-09	1.6435571988e-15
3.270	8.6870435090e-09	1.6660778734e-15
3.280	8.8425994706e-09	1.6886566321e-15
3.290	9.0002888845e-09	1.7112939791e-15
3.300	9.1601320290e-09	1.7339905153e-15
3.310	9.3221492908e-09	1.7567469648e-15
3.320	9.4863611653e-09	1.7795641616e-15
3.330	9.6527882561e-09	1.8024430643e-15
3.340	9.8214512762e-09	1.8253847563e-15
3.350	9.9923710472e-09	1.8483904452e-15
3.360	1.0165568500e-08	1.8714614765e-15
3.370	1.0341064675e-08	1.8945993395e-15
3.380	1.0518880722e-08	1.9178056682e-15
3.390	1.0699037899e-08	1.9410822415e-15
3.400	1.0881557577e-08	1.9644310203e-15
3.410	1.1066461235e-08	1.9878540974e-15
3.420	1.1253770460e-08	2.0113537802e-15
3.430	1.1443506954e-08	2.0349325369e-15
3.440	1.1635692525e-08	2.0585837942e-15
3.450	1.1830349095e-08	2.0822884196e-15
3.460	1.2027498693e-08	2.1060774860e-15
3.470	1.2227163463e-08	2.1299270200e-15
3.480	1.2429365656e-08	2.1537709610e-15
3.490	1.2634127639e-08	2.1776985045e-15
3.500	1.2841471884e-08	2.2017136589e-15
3.510	1.3051420980e-08	2.2258197839e-15
3.520	1.3263997626e-08	2.2500204223e-15
3.530	1.3479224630e-08	2.2742750888e-15
3.540	1.3697124916e-08	2.2984288035e-15
3.550	1.3917721518e-08	2.3226700452e-15
3.560	1.4141037581e-08	2.3470020347e-15
3.570	1.4367096364e-08	2.3714282131e-15
3.580	1.4595921239e-08	2.3959524152e-15
3.590	1.4827535689e-08	2.4205785712e-15
3.600	1.5061963310e-08	2.4451300665e-15
3.610	1.5299227811e-08	2.4696610810e-15
3.620	1.5539353015e-08	2.4942104679e-15
3.630	1.5782362856e-08	2.5185005899e-15
3.640	1.6028281383e-08	2.5428620070e-15
3.650	1.6277132758e-08	2.5672970265e-15
3.660	1.6528941256e-08	2.5918080347e-15
3.670	1.6783731265e-08	2.6163976050e-15
3.680	1.7041527288e-08	2.6410683693e-15
3.690	1.7302353942e-08	2.6658231297e-15
3.700	1.7566235957e-08	2.6906648189e-15
3.710	1.7833198177e-08	2.7155964827e-15
3.720	1.8103265561e-08	2.7406213540e-15
3.730	1.8376463181e-08	2.7657427883e-15
3.740	1.8652816224e-08	2.7907286428e-15
3.750	1.8932349993e-08	2.8153662279e-15
3.760	1.9215089903e-08	2.8400709624e-15
3.770	1.9501061486e-08	2.8648449204e-15
3.780	1.9790290387e-08	2.8896901963e-15
3.790	2.0082802367e-08	2.9146089924e-15
3.800	2.0378623301e-08	2.9396035904e-15
3.810	2.0677779181e-08	2.9646763810e-15
3.820	2.0980296113e-08	2.9898298091e-15
3.830	2.1286200316e-08	3.0150664384e-15
3.840	2.1595518129e-08	3.0403889568e-15
3.850	2.1908276002e-08	3.0654913420e-15
3.860	2.2224500504e-08	3.0902353919e-15
3.870	2.2544218318e-08	3.1150363170e-15
3.880	2.2867456242e-08	3.1398956949e-15
3.890	2.3194241191e-08	3.1643078216e-15
3.900	2.3524600195e-08	3.1882918571e-15
3.910	2.3858560400e-08	3.2123011047e-15
3.920	2.4196149069e-08	3.2363362227e-15
3.930	2.4537393579e-08	3.2603979192e-15
3.940	2.4882321425e-08	3.2844869155e-15
3.950	2.5230960217e-08	3.3086039915e-15
3.960	2.5583337682e-08	3.3327498924e-15
3.970	2.5939481662e-08	3.3569254740e-15
3.980	2.6299420116e-08	3.3811315997e-15
3.990	2.6663181120e-08	3.4053691763e-15
4.000	2.7030792865e-08	3.4296391439e-15
4.010	2.7402283660e-08	3.4539425700e-15
4.020	2.7777681928e-08	3.4782805630e-15
4.030	2.8157016211e-08	3.5015740044e-15
4.040	2.8540315166e-08	3.5248573927e-15
4.050	2.8927607568e-08	3.5481505054e-15
4.060	2.9318922306e-08	3.5714611521e-15
4.070	2.9714288388e-08	3.5947883876e-15
4.080	3.0113734938e-08	3.6172430473e-15
4.090	3.0517291195e-08	3.6394154673e-15
4.100	3.0924986517e-08	3.6615808639e-15
4.110	3.1336850376e-08	3.6837391465e-15
4.120	3.1752912363e-08	3.7058902603e-15
4.130	3.2173202185e-08	3.7280342530e-15
4.140	3.2597749665e-08	3.7501711889e-15
4.150	3.3026584742e-08	3.7722440820e-15
4.160	3.3459737473e-08	3.7931512065e-15
4.170	3.3897238031e-08	3.8140453933e-15
4.180	3.4339116706e-08	3.8349265431e-15
4.190	3.4785403902e-08	3.8557946178e-15
4.200	3.5236130144e-08	3.8766495483e-15
4.210	3.5691326069e-08	3.8974913588e-15
4.220	3.6151022434e-08	3.9183200164e-15
4.230	3.6615250109e-08	3.9391355369e-15
4.240	3.7084040083e-08	3.9599379239e-15
4.250	3.7557423461e-08	3.9805253950e-15
4.260	3.8035431462e-08	4.0001551089e-15
4.270	3.8518095425e-08	4.0197751050e-15
4.280	3.9005446800e-08	4.0393850884e-15
4.290	3.9497517159e-08	4.0589847506e-15
4.300	3.9994338185e-08	4.0785738618e-15
4.310	4.0495941680e-08	4.0981521471e-15
4.320	4.1002359560e-08	4.1177194415e-15
4.330	4.1513623859e-08	4.1361953582e-15
4.340	4.2029766723e-08	4.1538268451e-15
4.350	4.2550821250e-08	4.1294090913e-14
4.360	4.3076818159e-08	3.3947710204e-14
4.370	4.3607790772e-08	2.7128734569e-14
4.380	4.4143771700e-08	2.0868337498e-14
4.390	4.4684793667e-08	1.5207196629e-14
4.400	4.5230889514e-08	1.0200950034e-14
4.410	4.5782092197e-08	5.9313827729e-15
4.420	4.6338434785e-08	2.5347610105e-15
4.430	4.6899950464e-08	3.1628687668e-16
4.440	4.7466672534e-08	1.0215846409e-15
4.450	4.8038634409e-08	3.7361960255e-15
4.460	4.8615869617e-08	7.4097228798e-15
4.470	4.9198411800e-08	1.1819244860e-14
4.480	4.9786294717e-08	1.6843530936e-14
4.490	5.0379552236e-08	2.2402424365e-14
4.500	5.0978218344e-08	2.8437462386e-14
4.510	5.1582327139e-08	3.4903356986e-14
4.520	5.2191912830e-08	4.1763558363e-14
4.530	5.2807009745e-08	4.8987678923e-14
4.540	5.3427651393e-08	4.4912230999e-15
4.550	5.4053874175e-08	4.5078895278e-15
4.560	5.4685711832e-08	4.5245629587e-15
4.570	5.5323199140e-08	4.5412424699e-15
4.580	5.5966370988e-08	4.5579271620e-15
4.590	5.6615262378e-08	4.5746162340e-15
4.600	5.7269908421e-08	4.5913088974e-15
4.610	5.7930344342e-08	4.6080044436e-15
4.620	5.8596605478e-08	4.6247022241e-15
4.630	5.9268727276e-08	4.6414015904e-15
4.640	5.9946745295e-08	4.6581019772e-15
4.650	6.0630695204e-08	4.6748028739e-15
4.660	6.1320612783e-08	4.6915037386e-15
4.670	6.2016533924e-08	4.7082041598e-15
4.680	6.2718494627e-08	4.7249036917e-15
4.690	6.3426531003e-08	4.7416019332e-15
4.700	6.4140679272e-08	4.7582985181e-15
4.710	6.4860975766e-08	4.7749931470e-15
4.720	6.5587456923e-08	4.7916854973e-15
4.730	6.6320159291e-08	4.8081105750e-15
4.740	6.7059119528e-08	4.8243180753e-15
4.750	6.7804374399e-08	4.8405283554e-15
4.760	6.8555960777e-08	4.8567409747e-15
4.770	6.9313915644e-08	4.8729554693e-15
4.780	7.0078276089e-08	4.8891714920e-15
4.790	7.0849079307e-08	4.9053886783e-15
4.800	7.1626362604e-08	4.9216066950e-15
4.810	7.2410163387e-08	4.9378252262e-15
4.820	7.3200519174e-08	4.9540440506e-15
4.830	7.3997467587e-08	4.9702628712e-15
4.840	7.4801046355e-08	4.9864815296e-15
4.850	7.5611293309e-08	5.0026997776e-15
4.860	7.6428246391e-08	5.0189174256e-15
4.870	7.7251943642e-08	5.0351343467e-15
4.880	7.8082423210e-08	5.0513504286e-15
4.890	7.8919723349e-08	5.0675655238e-15
4.900	7.9763882413e-08	5.0837795623e-15
4.910	8.0614938862e-08	5.0999830452e-15
4.920	8.1472931257e-08	5.1161828876e-15
4.930	8.2337898265e-08	5.1323811964e-15
4.940	8.3209878652e-08	5.1485779944e-15
4.950	8.4088911287e-08	5.1647721203e-15
4.960	8.4975035141e-08	5.1809611650e-15
4.970	8.5868289286e-08	5.1971483958e-15
4.980	8.6768712896e-08	5.2133338199e-15
4.990	8.7676345243e-08	5.2295174660e-15
5.000	8.8591225700e-08	5.2456993335e-15
5.010	8.9513393742e-08	5.2618795543e-15
5.020	9.0442888939e-08	5.2780581316e-15
5.030	9.1379750964e-08	5.2942351985e-15
5.040	9.2324019585e-08	5.3104107842e-15
5.050	9.3275734670e-08	5.3265850385e-15
5.060	9.4234936185e-08	5.3427580214e-15
5.070	9.5201664191e-08	5.3589298876e-15
