cal_S_function with E_thr = 10.0 MeV
T[MeV]	cal_S	cal_S_error
0.0	0.0	0.0
0.600	2.2044239218e-56	1.1792619818e-63
0.610	2.7872463418e-56	1.3310571242e-63
0.620	3.5023001105e-56	1.5015911513e-63
0.630	4.3746705500e-56	1.6965633024e-63
0.640	5.4332642912e-56	1.9230372964e-63
0.650	6.7112441802e-56	2.1894032641e-63
0.660	8.2464955153e-56	2.5061702347e-63
0.670	1.0082124238e-55	2.8863673268e-63
0.680	1.2266987620e-55	3.3460059044e-63
0.690	1.4856257896e-55	3.9046108639e-63
0.700	1.7912019226e-55	4.5849347237e-63
0.710	2.1503898271e-55	5.4103083922e-63
0.720	2.5709728604e-55	6.4169129435e-63
0.730	3.0616249084e-55	7.6438470181e-63
0.740	3.6319836278e-55	9.1373144924e-63
0.750	4.2927270910e-55	1.0951694153e-62
0.760	5.0556538274e-55	1.3150749740e-62
0.770	5.9337662493e-55	1.5808999407e-62
0.780	6.9413574418e-55	1.9013273012e-62
0.790	8.0941012942e-55	2.2864476600e-62
0.800	9.4091459434e-55	2.7479603712e-62
0.810	1.0905210496e-54	3.2993815722e-62
0.820	1.2602684990e-54	3.9563418884e-62
0.830	1.4523733562e-54	4.7368970226e-62
0.840	1.6692400764e-54	5.6557279692e-62
0.850	1.9134720994e-54	6.7313750606e-62
0.860	2.1878830983e-54	7.9953011569e-62
0.870	2.4955085298e-54	9.4724862045e-62
0.880	2.8396174787e-54	1.1186006424e-61
0.890	3.2237247940e-54	1.3175906715e-61
0.900	3.6516035086e-54	1.5470592424e-61
0.910	4.1272975383e-54	1.8098776609e-61
0.920	4.6551346540e-54	2.1127535899e-61
0.930	5.2397397219e-54	2.4611245856e-61
0.940	5.8860482056e-54	2.8528120189e-61
0.950	6.5993199242e-54	3.2979447065e-61
0.960	7.3851530620e-54	3.7983814593e-61
0.970	8.2494984229e-54	4.3583871027e-61
0.980	9.1986739254e-54	4.9908375011e-61
0.990	1.0239379332e-53	5.6809688484e-61
1.000	1.1378711209e-53	6.4522014489e-61
1.010	1.2624178108e-53	7.3139363461e-61
1.020	1.3983715973e-53	8.2752051221e-61
1.030	1.5465703754e-53	9.3458175557e-61
1.040	1.7078979240e-53	1.0536425652e-60
1.050	1.8832855092e-53	1.1827053686e-60
1.060	2.0737135078e-53	1.3181012781e-60
1.070	2.2802130511e-53	1.4657433295e-60
1.080	2.5038676876e-53	1.6272371003e-60
1.090	2.7458150645e-53	1.8036245810e-60
1.100	3.0072486290e-53	1.9960044409e-60
1.110	3.2894193464e-53	2.2055430570e-60
1.120	3.5936374376e-53	2.4334707205e-60
1.130	3.9212741337e-53	2.6755911390e-60
1.140	4.2737634478e-53	2.9191346692e-60
1.150	4.6526039650e-53	3.1807789214e-60
1.160	5.0593606482e-53	3.4615392287e-60
1.170	5.4956666618e-53	3.7624705704e-60
1.180	5.9632252109e-53	4.0846710810e-60
1.190	6.4638113977e-53	4.4265420103e-60
1.200	6.9992740940e-53	4.7769825862e-60
1.210	7.5715378289e-53	5.1500010550e-60
1.220	8.1826046940e-53	5.5472112677e-60
1.230	8.8345562626e-53	5.9694424177e-60
1.240	9.5295555262e-53	6.4102471648e-60
1.250	1.0269848846e-52	6.8441841114e-60
1.260	1.1057767918e-52	7.3009735987e-60
1.270	1.1895731759e-52	7.7828298187e-60
1.280	1.2786248308e-52	1.1352343886e-58
1.290	1.3731917989e-52	8.9992142344e-59
1.300	1.4735433453e-52	6.8055544355e-59
1.310	1.5799583119e-52	4.8010925283e-59
1.320	1.6927252873e-52	3.0243391783e-59
1.330	1.8121428133e-52	1.5305919537e-59
1.340	1.9385195942e-52	4.1683223744e-60
1.350	2.0721747076e-52	1.1625576492e-60
1.360	2.2134378160e-52	1.0330015032e-59
1.370	2.3626493806e-52	2.4475776190e-59
1.380	2.5201608764e-52	4.2346008348e-59
1.390	2.6863350092e-52	6.3381031232e-59
1.400	2.8615459331e-52	8.7239774406e-59
1.410	3.0461794712e-52	1.1368382351e-58
1.420	3.2406333361e-52	1.4253215136e-58
1.430	3.4453173537e-52	1.7363928867e-58
1.440	3.6606536872e-52	2.0688337085e-58
1.450	3.8870770632e-52	2.4215900338e-58
1.460	4.1250349998e-52	2.7937267623e-58
1.470	4.3749880357e-52	3.1843970235e-58
1.480	4.6374099612e-52	3.5928254467e-58
1.490	4.9127880509e-52	4.0182887288e-58
1.500	5.2016232977e-52	4.4601064346e-58
1.510	5.5044306491e-52	4.9176330279e-58
1.520	5.8217392444e-52	5.3902518272e-58
1.530	6.1540926541e-52	5.8773704560e-58
1.540	6.5020491206e-52	6.3784172709e-58
1.550	6.8661819498e-52	3.2417069214e-59
1.560	7.2470791672e-52	3.3867798674e-59
1.570	7.6453446366e-52	3.5370720514e-59
1.580	8.0615977321e-52	3.6927248172e-59
1.590	8.4964737303e-52	3.8538830361e-59
1.600	8.9506240613e-52	4.0206953117e-59
1.610	9.4247165618e-52	4.1933139910e-59
1.620	9.9194357301e-52	4.3718954044e-59
1.630	1.0435482982e-51	4.5565999240e-59
1.640	1.0973576911e-51	4.7475924779e-59
1.650	1.1534453546e-51	4.9450424676e-59
1.660	1.2118866615e-51	5.1491238529e-59
1.670	1.2727587809e-51	5.3600157283e-59
1.680	1.3361407046e-51	5.5779024195e-59
1.690	1.4021132740e-51	5.8029741962e-59
1.700	1.4707592073e-51	6.0354280880e-59
1.710	1.5421631259e-51	6.2754723149e-59
1.720	1.6164115824e-51	6.5233500730e-59
1.730	1.6935930881e-51	6.7758883566e-59
1.740	1.7737981400e-51	7.0361633911e-59
1.750	1.8571192496e-51	7.3047274914e-59
1.760	1.9436509703e-51	7.5818076684e-59
1.770	2.0334899260e-51	7.8676378132e-59
1.780	2.1267348057e-51	2.1254860279e-57
1.790	2.2234865265e-51	2.1941652753e-57
1.800	2.3238480624e-51	2.2630904791e-57
1.810	2.4279246057e-51	2.3322315789e-57
1.820	2.5358235635e-51	2.4015593611e-57
1.830	2.6476545872e-51	2.4710454545e-57
1.840	2.7635296021e-51	2.5406623390e-57
1.850	2.8835628370e-51	2.6103833356e-57
1.860	3.0078708549e-51	2.6801826115e-57
1.870	3.1365725826e-51	2.7500351746e-57
1.880	3.2697893416e-51	2.8199168723e-57
1.890	3.4076448786e-51	2.8898044018e-57
1.900	3.5502653963e-51	2.9596654353e-57
1.910	3.6977795848e-51	3.0294850940e-57
1.920	3.8503186525e-51	3.0992439181e-57
1.930	4.0080163580e-51	3.1689217920e-57
1.940	4.1710090414e-51	3.2384994208e-57
1.950	4.3394356566e-51	3.3079583325e-57
1.960	4.5134378030e-51	3.3772808698e-57
1.970	4.6931597583e-51	3.4464502042e-57
1.980	4.8787485107e-51	3.5154503193e-57
1.990	5.0703537918e-51	3.5842660122e-57
2.000	5.2681281096e-51	3.6528829057e-57
2.010	5.4722267815e-51	3.7212874220e-57
2.020	5.6828079678e-51	3.7894668035e-57
2.030	5.9000327056e-51	3.8574091147e-57
2.040	6.1240649419e-51	3.9251032206e-57
2.050	6.3550715683e-51	3.9925388115e-57
2.060	6.5932224549e-51	4.0597063773e-57
2.070	6.8386908746e-51	1.9806907915e-57
2.080	7.0916515895e-51	4.1932035460e-57
2.090	7.3522847820e-51	4.2595182322e-57
2.100	7.6207721936e-51	4.3255350977e-57
2.110	7.8972991087e-51	4.3912487450e-57
2.120	8.1820540001e-51	4.4566546229e-57
2.130	8.4752285651e-51	4.5217490242e-57
2.140	8.7770177609e-51	4.5865290889e-57
2.150	9.0876198417e-51	4.6509928102e-57
2.160	9.4072363941e-51	4.7151390518e-57
2.170	9.7360723744e-51	4.7789675641e-57
2.180	1.0074336145e-50	4.8424787436e-57
2.190	1.0422239513e-50	4.9056741947e-57
2.200	1.0779997763e-50	4.9685565299e-57
2.210	1.1147829701e-50	5.0311291700e-57
2.220	1.1525957687e-50	5.0933965082e-57
2.230	1.1914607676e-50	5.1553639291e-57
2.240	1.2314009254e-50	5.2170378386e-57
2.250	1.2724395677e-50	5.2784257057e-57
2.260	1.3146003910e-50	5.3395360889e-57
2.270	1.3579074667e-50	5.4003786887e-57
2.280	1.4023852446e-50	5.4608750666e-57
2.290	1.4480585574e-50	5.5210514509e-57
2.300	1.4949526241e-50	5.5809757179e-57
2.310	1.5430930542e-50	5.6406605264e-57
2.320	1.5925058519e-50	5.7001197603e-57
2.330	1.6432174196e-50	5.7593685693e-57
2.340	1.6952545625e-50	5.8184234509e-57
2.350	1.7486444923e-50	5.8773022664e-57
2.360	1.8034148312e-50	5.9360243912e-57
2.370	1.8595936163e-50	5.9946107512e-57
2.380	1.9172093037e-50	6.0530834921e-57
2.390	1.9762907723e-50	6.1114672067e-57
2.400	2.0368673282e-50	6.1697882904e-57
2.410	2.0989687090e-50	6.2280750196e-57
2.420	2.1626250877e-50	6.2863578810e-57
2.430	2.2278670774e-50	6.3446697144e-57
2.440	2.2947257349e-50	6.4029397760e-57
2.450	2.3632325655e-50	6.4612790866e-57
2.460	2.4334195271e-50	6.5194003844e-57
2.470	2.5053190344e-50	6.5776425778e-57
2.480	2.5789639637e-50	6.6360459804e-57
2.490	2.6543876565e-50	6.6945096598e-57
2.500	2.7316239246e-50	6.7526265315e-57
2.510	2.8107070541e-50	6.8109474221e-57
2.520	2.8916718098e-50	6.8695155635e-57
2.530	2.9745534401e-50	6.9281687901e-57
2.540	3.0593876808e-50	6.9864085902e-57
2.550	3.1462107600e-50	7.0443064562e-57
2.560	3.2350594027e-50	7.1017846417e-57
2.570	3.3259708349e-50	7.1594774028e-57
2.580	3.4189827886e-50	7.2174203592e-57
2.590	3.5141335062e-50	7.2756509977e-57
2.600	3.6114617448e-50	7.3342087679e-57
2.610	3.7110067813e-50	7.3931352120e-57
2.620	3.8128084169e-50	7.4524741447e-57
2.630	3.9169069815e-50	7.5102462474e-57
2.640	4.0233433385e-50	7.5682219406e-57
2.650	4.1321588898e-50	7.6265220497e-57
2.660	4.2433955801e-50	7.6851812152e-57
2.670	4.3570959018e-50	7.7442356023e-57
2.680	4.4733028997e-50	7.8037228759e-57
2.690	4.5920601761e-50	7.8636822675e-57
2.700	4.7134118950e-50	7.9225359494e-57
2.710	4.8374027877e-50	7.9809124806e-57
2.720	4.9640781569e-50	8.0381965082e-57
2.730	5.0934838818e-50	8.0939948882e-57
2.740	5.2256664234e-50	8.1499882840e-57
2.750	5.3606728288e-50	8.2061961720e-57
2.760	5.4985507365e-50	8.2626384201e-57
2.770	5.6393483813e-50	8.3193352304e-57
2.780	5.7831145989e-50	8.3763071580e-57
2.790	5.9298988315e-50	8.4335751212e-57
2.800	6.0797511325e-50	8.4911604825e-57
2.810	6.2327221712e-50	8.5490848681e-57
2.820	6.3888632384e-50	8.6038564041e-57
2.830	6.5482262513e-50	8.6584008481e-57
2.840	6.7108637583e-50	8.7113684488e-57
2.850	6.8768289443e-50	8.7620629690e-57
2.860	7.0461756361e-50	8.8128268688e-57
2.870	7.2189583071e-50	8.8636693108e-57
2.880	7.3952320825e-50	8.9146006824e-57
2.890	7.5750527448e-50	8.9656340320e-57
2.900	7.7584767389e-50	9.0165372323e-57
2.910	7.9455611770e-50	9.0632758150e-57
2.920	8.1363638443e-50	9.1100565662e-57
2.930	8.3309432038e-50	9.1568876381e-57
2.940	8.5293584021e-50	9.2037771685e-57
2.950	8.7316692742e-50	9.2507335125e-57
2.960	8.9379363490e-50	9.2977650819e-57
2.970	9.1482208547e-50	9.3437715542e-57
2.980	9.3625847243e-50	9.3865344367e-57
2.990	9.5810906004e-50	9.4293600920e-57
3.000	9.8038018412e-50	9.4710178582e-57
3.010	1.0030782526e-49	9.5100569714e-57
3.020	1.0262097459e-49	9.5490157051e-57
3.030	1.0497812177e-49	9.5844610544e-57
3.040	1.0737992954e-49	9.6200468515e-57
3.050	1.0982706807e-49	9.6557699784e-57
3.060	1.1232021499e-49	9.6909497180e-57
3.070	1.1486005549e-49	9.7241409793e-57
3.080	1.1744728234e-49	9.7575100284e-57
3.090	1.2008259595e-49	9.7897517366e-57
3.100	1.2276670443e-49	9.8214595163e-57
3.110	1.2550032366e-49	9.8531089696e-57
3.120	1.2828417734e-49	9.8849595584e-57
3.130	1.3111899701e-49	9.9170055629e-57
3.140	1.3400552216e-49	9.9492423859e-57
3.150	1.3694450026e-49	9.9816662531e-57
3.160	1.3993668681e-49	1.0014274417e-56
3.170	1.4298284540e-49	1.0047064796e-56
3.180	1.4608374780e-49	1.0080036095e-56
3.190	1.4924017395e-49	1.0113187734e-56
3.200	1.5245291208e-49	1.0146519678e-56
3.210	1.5572275875e-49	1.0180032512e-56
3.220	1.5905051888e-49	1.0213727262e-56
3.230	1.6243700584e-49	1.0247605683e-56
3.240	1.6588304150e-49	1.0281669814e-56
3.250	1.6938945628e-49	1.0314274051e-56
3.260	1.7295708920e-49	1.0346356508e-56
3.270	1.7658678797e-49	1.0378658486e-56
3.280	1.8027940902e-49	1.0411181327e-56
3.290	1.8403581757e-49	1.0443927021e-56
3.300	1.8785688767e-49	1.0476863445e-56
3.310	1.9174350229e-49	1.0510021939e-56
3.320	1.9569655336e-49	1.0543240592e-56
3.330	1.9971694183e-49	1.0576082690e-56
3.340	2.0380557772e-49	1.0609169662e-56
3.350	2.0796338021e-49	1.0642507306e-56
3.360	2.1219127767e-49	1.0676102272e-56
3.370	2.1649020772e-49	1.0709962452e-56
3.380	2.2086111730e-49	1.0744096861e-56
3.390	2.2530496273e-49	1.0778516658e-56
3.400	2.2982270978e-49	1.0813235727e-56
3.410	2.3441533368e-49	1.0848272995e-56
3.420	2.3908381926e-49	1.0883659723e-56
3.430	2.4382916093e-49	1.0919522695e-56
3.440	2.4865236280e-49	1.0955952591e-56
3.450	2.5355443870e-49	1.0992796191e-56
3.460	2.5853641226e-49	1.1030034764e-56
3.470	2.6359931697e-49	1.1067664296e-56
3.480	2.6874419623e-49	1.1105685936e-56
3.490	2.7397210343e-49	1.1144102879e-56
3.500	2.7928410198e-49	1.1182919928e-56
3.510	2.8468126541e-49	1.1222142720e-56
3.520	2.9016467737e-49	1.1261777369e-56
3.530	2.9573543177e-49	1.1301830741e-56
3.540	3.0139463278e-49	1.1342309902e-56
3.550	3.0714339491e-49	1.1383222418e-56
3.560	3.1298284306e-49	1.1424575908e-56
3.570	3.1891411263e-49	1.1466378321e-56
3.580	3.2493834949e-49	1.1508637799e-56
3.590	3.3105671014e-49	1.1551362839e-56
3.600	3.3727036169e-49	1.1594561878e-56
3.610	3.4358048197e-49	1.1638243522e-56
3.620	3.4998825958e-49	1.1682416800e-56
3.630	3.5649489393e-49	1.1727090692e-56
3.640	3.6310159534e-49	1.1772274267e-56
3.650	3.6980958506e-49	1.1817976845e-56
3.660	3.7662009535e-49	1.1864207788e-56
3.670	3.8353436956e-49	1.1910964677e-56
3.680	3.9055366215e-49	1.1958267132e-56
3.690	3.9767923879e-49	1.2006124551e-56
3.700	4.0491237637e-49	1.2054547021e-56
3.710	4.1225436314e-49	1.2103544082e-56
3.720	4.1970649869e-49	1.2153125741e-56
3.730	4.2727009406e-49	1.2203114650e-56
3.740	4.3494647178e-49	1.2252467530e-56
3.750	4.4273696595e-49	1.2302431118e-56
3.760	4.5064292228e-49	1.2353015597e-56
3.770	4.5866569815e-49	1.2404231364e-56
3.780	4.6680666269e-49	1.2456088687e-56
3.790	4.7506719683e-49	1.2508598216e-56
3.800	4.8344869335e-49	1.2561770604e-56
3.810	4.9195255698e-49	1.2615616724e-56
3.820	5.0058020438e-49	1.2670147343e-56
3.830	5.0933306430e-49	1.2725373716e-56
3.840	5.1821257757e-49	1.2781306967e-56
3.850	5.2722019718e-49	1.2837958400e-56
3.860	5.3635738835e-49	1.2895339548e-56
3.870	5.4562562857e-49	1.2953462040e-56
3.880	5.5502640770e-49	1.3012337628e-56
3.890	5.6456122796e-49	1.3071978302e-56
3.900	5.7423160405e-49	1.3132396125e-56
3.910	5.8403906321e-49	1.3193603088e-56
3.920	5.9398514523e-49	1.3255611864e-56
3.930	6.0407140255e-49	1.3318434792e-56
3.940	6.1429940031e-49	1.3382084857e-56
3.950	6.2467071640e-49	1.3446574622e-56
3.960	6.3518694154e-49	1.3511917102e-56
3.970	6.4584967931e-49	1.3578125955e-56
3.980	6.5666054623e-49	1.3645214139e-56
3.990	6.6762117181e-49	1.3713195421e-56
4.000	6.7873319861e-49	1.3782083527e-56
4.010	6.8999828229e-49	1.3851892624e-56
4.020	7.0141809169e-49	1.3922636675e-56
4.030	7.1299430885e-49	1.3994330314e-56
4.040	7.2472862912e-49	1.4066987882e-56
4.050	7.3662276116e-49	1.4140624585e-56
4.060	7.4867842703e-49	1.4215255176e-56
4.070	7.6089736227e-49	1.4290895111e-56
4.080	7.7328131588e-49	1.4367560014e-56
4.090	7.8583205046e-49	1.4445265562e-56
4.100	7.9855134222e-49	1.4524028068e-56
4.110	8.1144098104e-49	1.4603863618e-56
4.120	8.2450277054e-49	1.4684789088e-56
4.130	8.3773852813e-49	1.4766821412e-56
4.140	8.5115008505e-49	1.4849977655e-56
4.150	8.6473928644e-49	1.4934275509e-56
4.160	8.7850799140e-49	1.5019732857e-56
4.170	8.9245807304e-49	1.5106368040e-56
4.180	9.0659141852e-49	1.5194199387e-56
4.190	9.2090992911e-49	1.5283246059e-56
4.200	9.3541552026e-49	1.5373527162e-56
4.210	9.5011012164e-49	1.5465062902e-56
4.220	9.6499567718e-49	1.5557872895e-56
4.230	9.8007414516e-49	1.5651977978e-56
4.240	9.9534749822e-49	1.5747399020e-56
4.250	1.0108177234e-48	1.5844157743e-56
4.260	1.0264868224e-48	1.5942275725e-56
4.270	1.0423568111e-48	1.6041775870e-56
4.280	1.0584297204e-48	1.6142680541e-56
4.290	1.0747075954e-48	1.6245013910e-56
4.300	1.0911924963e-48	1.6348799567e-56
4.310	1.1078864977e-48	1.6454062508e-56
4.320	1.1247916892e-48	1.6560828033e-56
4.330	1.1419101751e-48	1.6669121503e-56
4.340	1.1592440747e-48	1.6778970577e-56
4.350	1.1767955222e-48	1.6890266630e-56
4.360	1.1945666667e-48	1.7002714858e-56
4.370	1.2125596723e-48	1.7116752141e-56
4.380	1.2307767184e-48	1.7232405299e-56
4.390	1.2492199993e-48	1.7349701457e-56
4.400	1.2678917247e-48	1.7468610306e-56
4.410	1.2867941192e-48	1.7588868554e-56
4.420	1.3059294228e-48	1.7710843879e-56
4.430	1.3252998910e-48	1.7834566715e-56
4.440	1.3449077944e-48	1.7960068090e-56
4.450	1.3647554191e-48	1.8087379653e-56
4.460	1.3848450666e-48	1.8216534633e-56
4.470	1.4051790539e-48	1.8347566276e-56
4.480	1.4257597136e-48	1.8480509686e-56
4.490	1.4465893937e-48	1.8615400037e-56
4.500	1.4676704579e-48	1.8752275110e-56
4.510	1.4890052857e-48	1.8891172209e-56
4.520	1.5105962721e-48	1.9032130759e-56
4.530	1.5324458279e-48	1.9175191482e-56
4.540	1.5545563796e-48	1.9320395647e-56
4.550	1.5769303696e-48	1.9467786911e-56
4.560	1.5995702563e-48	1.9617409486e-56
4.570	1.6224785136e-48	1.9769309672e-56
4.580	1.6456576316e-48	1.9923535410e-56
4.590	1.6691101165e-48	2.0080135846e-56
4.600	1.6928384902e-48	2.0239162039e-56
4.610	1.7168452908e-48	2.0400667458e-56
4.620	1.7411330725e-48	2.0564706243e-56
4.630	1.7657044055e-48	2.0731336464e-56
4.640	1.7905618763e-48	2.0900616546e-56
4.650	1.8157080875e-48	2.1072607960e-56
4.660	1.8411456579e-48	2.1247375387e-56
4.670	1.8668772225e-48	2.1424985050e-56
4.680	1.8929054328e-48	2.1605505260e-56
4.690	1.9192329565e-48	2.1789009072e-56
4.700	1.9458624775e-48	2.1975570582e-56
4.710	1.9727966963e-48	2.2164868314e-56
4.720	2.0000383297e-48	2.2357075975e-56
4.730	2.0275901109e-48	2.2552527733e-56
4.740	2.0554547898e-48	2.2749824686e-56
4.750	2.0836351324e-48	2.2949834569e-56
4.760	2.1121339217e-48	2.3153173811e-56
4.770	2.1409539569e-48	2.3359927542e-56
4.780	2.1700980538e-48	2.3570183813e-56
4.790	2.1995690451e-48	2.3784034396e-56
4.800	2.2293697799e-48	2.3997995192e-56
4.810	2.2595031239e-48	2.4214524500e-56
4.820	2.2899719597e-48	2.4430262141e-56
4.830	2.3207791865e-48	2.4649278669e-56
4.840	2.3519277201e-48	2.4871643811e-56
4.850	2.3834204933e-48	2.5097429456e-56
4.860	2.4152604556e-48	2.5326708975e-56
4.870	2.4474505731e-48	2.5559559898e-56
4.880	2.4799938291e-48	2.5796060857e-56
4.890	2.5128932233e-48	2.6029769358e-56
4.900	2.5461517727e-48	2.6266061584e-56
4.910	2.5797725108e-48	2.6505732848e-56
4.920	2.6137584882e-48	2.6748844512e-56
4.930	2.6481127723e-48	2.6995463063e-56
4.940	2.6828384477e-48	2.7245655456e-56
4.950	2.7179386156e-48	2.7499490344e-56
4.960	2.7534163944e-48	2.7757041652e-56
4.970	2.7892749193e-48	2.8018380076e-56
4.980	2.8255173426e-48	2.8283584084e-56
4.990	2.8621468336e-48	2.8552731861e-56
5.000	2.8991665787e-48	2.8825904843e-56
5.010	2.9365797811e-48	2.9094303850e-56
5.020	2.9743896613e-48	2.9363187763e-56
5.030	3.0125994567e-48	2.9635586782e-56
5.040	3.0512124218e-48	2.9911557599e-56
5.050	3.0902318281e-48	3.0191156782e-56
5.060	3.1296609644e-48	3.0474443302e-56
5.070	3.1695031363e-48	3.0761478392e-56
5.080	3.2097616667e-48	3.1052323033e-56
5.090	3.2504398956e-48	3.1347042589e-56
5.100	3.2915411800e-48	3.1645700974e-56
5.110	3.3330688941e-48	3.1948367762e-56
5.120	3.3750264292e-48	3.2252216391e-56
5.130	3.4174171936e-48	3.2548649031e-56
5.140	3.4602446130e-48	3.2848532209e-56
5.150	3.5035121300e-48	3.3151909491e-56
5.160	3.5472232045e-48	3.3458825859e-56
5.170	3.5913813132e-48	3.3751819447e-56
5.180	3.6359899504e-48	3.4046294526e-56
5.190	3.6810526272e-48	3.4342719465e-56
5.200	3.7265728719e-48	3.4641999753e-56
5.210	3.7725542300e-48	3.4944158572e-56
5.220	3.8190002641e-48	3.5249220467e-56
5.230	3.8659145539e-48	3.5557207861e-56
5.240	3.9133006962e-48	3.5868145733e-56
5.250	3.9611623049e-48	3.6182057625e-56
5.260	4.0095030111e-48	3.6498968672e-56
5.270	4.0583264629e-48	3.6818903010e-56
5.280	4.1076363256e-48	3.7141887459e-56
5.290	4.1574362816e-48	3.7467947484e-56
5.300	4.2077300301e-48	3.7797107524e-56
5.310	4.2585212877e-48	3.8129395331e-56
5.320	4.3098137879e-48	3.8464838473e-56
5.330	4.3616112814e-48	3.8803463602e-56
5.340	4.4139175356e-48	3.9145296619e-56
5.350	4.4667363354e-48	3.9469897264e-56
5.360	4.5200714822e-48	3.9793363404e-56
5.370	4.5739267949e-48	4.0112679553e-56
5.380	4.6283061090e-48	4.0415700860e-56
5.390	4.6832132771e-48	4.0720620885e-56
5.400	4.7386521688e-48	4.1027438241e-56
5.410	4.7946266706e-48	4.1336157587e-56
5.420	4.8511406859e-48	4.1646777867e-56
5.430	4.9081981351e-48	4.1959301476e-56
5.440	4.9658029553e-48	4.2273729228e-56
5.450	5.0239591007e-48	4.2590064141e-56
5.460	5.0826705420e-48	4.2908303575e-56
5.470	5.1419412671e-48	4.3228453085e-56
5.480	5.2017752805e-48	4.3550512382e-56
5.490	5.2621766035e-48	4.3874482763e-56
5.500	5.3231492741e-48	4.4200365041e-56
5.510	5.3846973472e-48	4.4528162467e-56
5.520	5.4468248943e-48	4.4836317848e-56
5.530	5.5095360034e-48	4.5138772330e-56
5.540	5.5728347796e-48	4.5442711929e-56
5.550	5.6367253442e-48	4.5748129837e-56
5.560	5.7012118353e-48	4.6055022157e-56
5.570	5.7662984076e-48	4.6363384886e-56
