T[MeV]	f_value	f_error
1.000	8.2137553189	4.8e-10
1.010	7.8192395424	1.5e-10
1.020	7.4536832695	2.9e-11
1.030	7.1144418577	1.9e-10
1.040	6.7991544533	4.2e-10
1.050	6.5057093981	2.5e-11
1.060	6.2322143221	2.7e-11
1.070	5.9769702281	2.8e-11
1.080	5.7384489833	2.9e-11
1.090	5.5152737301	3.0e-11
1.100	5.3062017982	3.1e-11
1.110	5.1101097696	3.2e-11
1.120	4.9259803985	3.3e-11
1.130	4.7528911329	3.4e-11
1.140	4.5900040226	3.5e-11
1.150	4.4365568301	3.6e-11
1.160	4.2918551857	3.7e-11
1.170	4.1552656529	3.8e-11
1.180	4.0262095875	3.9e-11
1.190	3.9041576897	4.0e-11
1.200	3.7886251643	4.1e-11
1.210	3.6791674133	4.2e-11
1.220	3.5753761963	4.2e-11
1.230	3.4768762032	4.3e-11
1.240	3.3833219898	4.3e-11
1.250	3.2943952345	4.4e-11
1.260	3.2098022778	4.4e-11
1.270	3.1292719136	4.5e-11
1.280	3.0525534036	4.5e-11
1.290	2.9794146886	4.5e-11
1.300	2.9096407770	4.6e-11
1.310	2.8430322900	4.6e-11
1.320	2.7794041459	4.6e-11
1.330	2.7185843708	4.6e-11
1.340	2.6604130205	4.6e-11
1.350	2.6047412024	4.6e-11
1.360	2.5514301878	4.6e-11
1.370	2.5003506046	4.6e-11
1.380	2.4513817027	4.6e-11
1.390	2.4044106846	4.6e-11
1.400	2.3593320952	2.1e-10
1.410	2.3160472640	1.9e-10
1.420	2.2744637962	1.7e-10
1.430	2.2344951064	1.5e-10
1.440	2.1960599921	1.3e-10
1.450	2.1590822425	1.2e-10
1.460	2.1234902795	1.0e-10
1.470	2.0892168287	9.1e-11
1.480	2.0561986158	8.0e-11
1.490	2.0243760886	1.9e-10
1.500	1.9936931599	6.5e-11
1.510	1.9640969716	1.4e-10
1.520	1.9355376764	5.1e-11
1.530	1.9079682364	4.6e-11
1.540	1.8813442374	4.2e-11
1.550	1.8556237169	3.9e-11
1.560	1.8307670049	3.7e-11
1.570	1.8067365768	1.6e-10
1.580	1.7834969169	1.4e-10
1.590	1.7610143915	1.3e-10
1.600	1.7392571320	1.1e-10
1.610	1.7181949253	9.8e-11
1.620	1.6977991126	8.6e-11
1.630	1.6780424953	7.6e-11
1.640	1.6588992468	6.8e-11
1.650	1.6403448313	6.1e-11
1.660	1.6223559274	5.5e-11
1.670	1.6049103570	5.1e-11
1.680	1.5879870193	4.9e-11
1.690	1.5715658287	5.0e-11
1.700	1.5556276573	5.4e-11
1.710	1.5401542807	5.8e-11
1.720	1.5251283275	6.3e-11
1.730	1.5105332320	6.9e-11
1.740	1.4963531900	7.4e-11
1.750	1.4825731175	8.0e-11
1.760	1.4691786113	8.5e-11
1.770	1.4561559131	9.1e-11
1.780	1.4434918750	9.6e-11
1.790	1.4311739271	1.0e-10
1.800	1.4191900480	1.1e-10
1.810	1.4075287356	1.1e-10
1.820	1.3961789812	1.2e-10
1.830	1.3851302438	1.2e-10
1.840	1.3743724265	1.2e-10
1.850	1.3638958547	1.3e-10
1.860	1.3536912545	1.3e-10
1.870	1.3437497336	1.3e-10
1.880	1.3340627620	4.6e-11
1.890	1.3246221546	4.5e-11
1.900	1.3154200550	4.4e-11
1.910	1.3064489191	4.3e-11
1.920	1.2977015008	4.3e-11
1.930	1.2891708377	4.2e-11
1.940	1.2808502382	4.1e-11
1.950	1.2727332684	4.0e-11
1.960	1.2648137406	4.0e-11
1.970	1.2570857022	3.9e-11
1.980	1.2495434247	3.8e-11
1.990	1.2421813938	3.7e-11
2.000	1.2349942996	3.6e-11
2.010	1.2279770280	3.6e-11
2.020	1.2211246517	3.5e-11
2.030	1.2144324221	3.4e-11
2.040	1.2078957617	3.3e-11
2.050	1.2015102566	3.2e-11
2.060	1.1952716494	3.2e-11
2.070	1.1891758329	3.1e-11
2.080	1.1832188433	3.0e-11
2.090	1.1773968547	2.9e-11
2.100	1.1717061728	2.9e-11
2.110	1.1661432300	2.8e-11
2.120	1.1607045800	2.7e-11
2.130	1.1553868927	2.7e-11
2.140	1.1501869496	2.6e-11
2.150	1.1451016394	2.5e-11
2.160	1.1401279538	2.5e-11
2.170	1.1352629831	2.4e-11
2.180	1.1305039124	2.3e-11
2.190	1.1258480183	2.3e-11
2.200	1.1212926648	2.2e-11
2.210	1.1168353002	2.2e-11
2.220	1.1124734538	2.1e-11
2.230	1.1082047329	2.0e-11
2.240	1.1040268196	2.0e-11
2.250	1.0999374683	1.9e-11
2.260	1.0959345028	1.9e-11
2.270	1.0920158138	1.8e-11
2.280	1.0881793565	1.8e-11
2.290	1.0844231478	1.8e-11
2.300	1.0807452648	1.7e-11
2.310	1.0771438418	1.7e-11
2.320	1.0736170690	1.6e-11
2.330	1.0701631899	1.6e-11
2.340	1.0667804997	1.6e-11
2.350	1.0634673435	1.5e-11
2.360	1.0602221143	1.5e-11
2.370	1.0570432516	1.5e-11
2.380	1.0539292397	1.5e-11
2.390	1.0508786059	1.5e-11
2.400	1.0478899194	1.4e-11
2.410	1.0449617899	1.0e-10
2.420	1.0420928656	1.0e-10
2.430	1.0392818328	1.0e-10
2.440	1.0365274138	9.8e-11
2.450	1.0338283663	9.7e-11
2.460	1.0311834819	9.5e-11
2.470	1.0285915850	9.4e-11
2.480	1.0260515319	9.2e-11
2.490	1.0235622096	9.0e-11
2.500	1.0211225350	8.9e-11
2.510	1.0187314535	8.7e-11
2.520	1.0163879387	8.6e-11
2.530	1.0140909911	8.4e-11
2.540	1.0118396372	8.3e-11
2.550	1.0096329289	8.1e-11
2.560	1.0074699426	7.9e-11
2.570	1.0053497785	7.8e-11
2.580	1.0032715599	7.7e-11
2.590	1.0012344321	7.5e-11
2.600	0.9992375623	7.4e-11
2.610	0.9972801386	7.2e-11
2.620	0.9953613694	7.1e-11
2.630	0.9934804829	6.9e-11
2.640	0.9916367262	6.8e-11
2.650	0.9898293651	6.7e-11
2.660	0.9880576834	6.5e-11
2.670	0.9863209825	6.4e-11
2.680	0.9846185804	6.3e-11
2.690	0.9829498119	6.2e-11
2.700	0.9813140276	6.0e-11
2.710	0.9797105936	5.9e-11
2.720	0.9781388912	5.8e-11
2.730	0.9765983162	5.7e-11
2.740	0.9750882787	5.6e-11
2.750	0.9736082026	5.4e-11
2.760	0.9721575252	5.3e-11
2.770	0.9707356969	5.2e-11
2.780	0.9693421806	5.1e-11
2.790	0.9679764519	5.0e-11
2.800	0.9666379980	4.9e-11
2.810	0.9653263179	4.8e-11
2.820	0.9640409220	4.7e-11
2.830	0.9627813318	4.6e-11
2.840	0.9615470792	4.5e-11
2.850	0.9603377069	4.4e-11
2.860	0.9591527676	4.3e-11
2.870	0.9579918238	4.2e-11
2.880	0.9568544478	4.1e-11
2.890	0.9557402212	4.0e-11
2.900	0.9546487346	3.9e-11
2.910	0.9535795878	3.8e-11
2.920	0.9525323888	3.7e-11
2.930	0.9515067544	3.7e-11
2.940	0.9505023094	3.6e-11
2.950	0.9495186866	3.5e-11
2.960	0.9485555268	3.4e-11
2.970	0.9476124782	3.3e-11
2.980	0.9466891964	3.3e-11
2.990	0.9457853441	3.2e-11
3.000	0.9449005914	3.1e-11
3.010	0.9440346149	3.0e-11
3.020	0.9431870980	3.0e-11
3.030	0.9423577306	2.9e-11
3.040	0.9415462090	2.8e-11
3.050	0.9407522356	2.8e-11
3.060	0.9399755189	2.7e-11
3.070	0.9392157734	2.6e-11
3.080	0.9384727191	2.6e-11
3.090	0.9377460819	2.5e-11
3.100	0.9370355929	2.4e-11
3.110	0.9363409887	2.4e-11
3.120	0.9356620112	2.3e-11
3.130	0.9349984072	2.3e-11
3.140	0.9343499285	2.2e-11
3.150	0.9337163320	2.2e-11
3.160	0.9330973790	2.1e-11
3.170	0.9324928356	2.0e-11
3.180	0.9319024725	2.0e-11
3.190	0.9313260646	1.9e-11
3.200	0.9307633913	1.9e-11
3.210	0.9302142362	1.8e-11
3.220	0.9296783869	1.8e-11
3.230	0.9291556350	1.8e-11
3.240	0.9286457763	1.7e-11
3.250	0.9281486102	1.7e-11
3.260	0.9276639399	1.6e-11
3.270	0.9271915723	1.6e-11
3.280	0.9267313178	1.5e-11
3.290	0.9262829905	1.5e-11
3.300	0.9258464079	1.5e-11
3.310	0.9254213905	1.4e-11
3.320	0.9250077626	1.4e-11
3.330	0.9246053514	1.3e-11
3.340	0.9242139873	1.3e-11
3.350	0.9238335037	1.3e-11
3.360	0.9234637371	1.2e-11
3.370	0.9231045271	1.2e-11
3.380	0.9227557157	1.2e-11
3.390	0.9224171482	1.1e-11
3.400	0.9220886724	1.1e-11
3.410	0.9217701389	1.1e-11
3.420	0.9214614007	1.0e-11
3.430	0.9211623138	1.0e-11
3.440	0.9208727364	9.8e-12
3.450	0.9205925293	9.6e-12
3.460	0.9203215557	9.3e-12
3.470	0.9200596810	9.0e-12
3.480	0.9198067733	8.8e-12
3.490	0.9195627027	8.5e-12
3.500	0.9193273415	8.3e-12
3.510	0.9191005644	8.0e-12
3.520	0.9188822479	7.8e-12
3.530	0.9186722711	7.6e-12
3.540	0.9184705146	7.4e-12
3.550	0.9182768613	7.2e-12
3.560	0.9180911961	6.9e-12
3.570	0.9179134058	6.7e-12
3.580	0.9177433789	6.5e-12
3.590	0.9175810060	6.4e-12
3.600	0.9174261794	6.2e-12
3.610	0.9172787931	6.0e-12
3.620	0.9171387431	5.8e-12
3.630	0.9170059269	5.7e-12
3.640	0.9168802436	5.5e-12
3.650	0.9167615942	5.3e-12
3.660	0.9166498812	5.2e-12
3.670	0.9165450086	5.0e-12
3.680	0.9164468819	4.9e-12
3.690	0.9163554085	4.8e-12
3.700	0.9162704968	4.6e-12
3.710	0.9161920569	4.5e-12
3.720	0.9161200005	4.4e-12
3.730	0.9160542403	4.3e-12
3.740	0.9159946907	4.2e-12
3.750	0.9159412674	4.1e-12
3.760	0.9158938873	4.0e-12
3.770	0.9158524688	3.9e-12
3.780	0.9158169313	3.8e-12
3.790	0.9157871958	3.8e-12
3.800	0.9157631843	3.7e-12
3.810	0.9157448200	3.6e-12
3.820	0.9157320273	3.6e-12
3.830	0.9157247320	3.6e-12
3.840	0.9157228608	3.6e-12
3.850	0.9157263415	3.6e-12
3.860	0.9157351031	3.6e-12
3.870	0.9157490757	3.6e-12
3.880	0.9157681904	3.6e-12
3.890	0.9157923794	3.7e-12
3.900	0.9158215759	3.7e-12
3.910	0.9158557140	3.7e-12
3.920	0.9158947290	3.7e-12
3.930	0.9159385570	3.7e-12
3.940	0.9159871350	3.8e-12
3.950	0.9160404012	3.8e-12
3.960	0.9160982946	3.8e-12
3.970	0.9161607549	3.9e-12
3.980	0.9162277229	3.9e-12
3.990	0.9162991402	3.9e-12
4.000	0.9163749494	4.0e-12
4.010	0.9164550937	4.0e-12
4.020	0.9165395172	4.0e-12
4.030	0.9166281650	4.1e-12
4.040	0.9167209827	4.1e-12
4.050	0.9168179170	4.2e-12
4.060	0.9169189151	4.2e-12
4.070	0.9170239251	4.2e-12
4.080	0.9171328958	4.3e-12
4.090	0.9172457767	4.3e-12
4.100	0.9173625181	4.4e-12
4.110	0.9174830710	4.4e-12
4.120	0.9176073870	4.5e-12
4.130	0.9177354185	4.5e-12
4.140	0.9178671185	4.5e-12
4.150	0.9180024406	4.6e-12
4.160	0.9181413393	4.6e-12
4.170	0.9182837694	4.7e-12
4.180	0.9184296865	4.7e-12
4.190	0.9185790469	4.8e-12
4.200	0.9187318074	4.8e-12
4.210	0.9188879254	4.9e-12
4.220	0.9190473589	4.9e-12
4.230	0.9192100665	4.9e-12
4.240	0.9193760074	5.0e-12
4.250	0.9195451411	5.0e-12
4.260	0.9197174281	5.1e-12
4.270	0.9198928291	5.1e-12
4.280	0.9200713054	5.2e-12
4.290	0.9202528190	5.2e-12
4.300	0.9204373320	5.3e-12
4.310	0.9206248076	5.3e-12
4.320	0.9208152089	5.3e-12
4.330	0.9210085000	5.4e-12
4.340	0.9212046451	5.4e-12
4.350	0.9214036091	5.5e-12
4.360	0.9216053572	5.5e-12
4.370	0.9218098553	5.6e-12
4.380	0.9220170694	5.6e-12
4.390	0.9222269664	5.6e-12
4.400	0.9224395133	5.7e-12
4.410	0.9226546775	5.7e-12
4.420	0.9228724272	5.8e-12
4.430	0.9230927305	5.8e-12
4.440	0.9233155564	5.8e-12
4.450	0.9235408740	5.9e-12
4.460	0.9237686528	5.9e-12
4.470	0.9239988629	6.0e-12
4.480	0.9242314747	6.0e-12
4.490	0.9244664589	6.0e-12
4.500	0.9247037865	6.1e-12
4.510	0.9249434292	6.1e-12
4.520	0.9251853588	6.1e-12
4.530	0.9254295475	6.2e-12
4.540	0.9256759678	6.2e-12
4.550	0.9259245928	6.3e-12
4.560	0.9261753956	6.3e-12
4.570	0.9264283498	6.3e-12
4.580	0.9266834294	6.4e-12
4.590	0.9269406087	6.4e-12
4.600	0.9271998623	6.4e-12
4.610	0.9274611649	6.5e-12
4.620	0.9277244919	6.5e-12
4.630	0.9279898188	6.5e-12
4.640	0.9282571214	6.6e-12
4.650	0.9285263759	6.6e-12
4.660	0.9287975586	6.6e-12
4.670	0.9290706462	6.7e-12
4.680	0.9293456159	6.7e-12
4.690	0.9296224448	6.7e-12
4.700	0.9299011105	6.8e-12
4.710	0.9301815908	6.8e-12
4.720	0.9304638639	6.8e-12
4.730	0.9307479081	6.9e-12
4.740	0.9310337020	6.9e-12
4.750	0.9313212246	6.9e-12
4.760	0.9316104550	7.0e-12
4.770	0.9319013726	7.0e-12
4.780	0.9321939570	7.0e-12
4.790	0.9324881882	7.0e-12
4.800	0.9327840462	7.1e-12
4.810	0.9330815114	7.1e-12
4.820	0.9333805644	7.1e-12
4.830	0.9336811861	7.2e-12
4.840	0.9339833575	7.2e-12
4.850	0.9342870599	7.2e-12
4.860	0.9345922748	7.2e-12
4.870	0.9348989839	7.3e-12
4.880	0.9352071691	7.3e-12
4.890	0.9355168127	7.3e-12
4.900	0.9358278970	7.3e-12
4.910	0.9361404044	7.4e-12
4.920	0.9364543179	7.4e-12
4.930	0.9367696203	7.4e-12
4.940	0.9370862948	7.4e-12
4.950	0.9374043249	7.5e-12
4.960	0.9377236939	7.5e-12
4.970	0.9380443858	7.5e-12
4.980	0.9383663843	7.5e-12
4.990	0.9386896737	7.5e-12
5.000	0.9390142381	7.6e-12
5.010	0.9393400622	7.6e-12
5.020	0.9396671305	7.6e-12
5.030	0.9399954278	7.6e-12
5.040	0.9403249392	7.6e-12
5.050	0.9406556498	7.7e-12
5.060	0.9409875450	7.7e-12
5.070	0.9413206102	7.7e-12
5.080	0.9416548312	7.7e-12
5.090	0.9419901936	7.7e-12
5.100	0.9423266837	7.8e-12
5.110	0.9426642873	7.8e-12
5.120	0.9430029910	7.8e-12
5.130	0.9433427810	7.8e-12
5.140	0.9436836441	7.8e-12
5.150	0.9440255669	7.8e-12
5.160	0.9443685364	7.9e-12
5.170	0.9447125395	7.9e-12
5.180	0.9450575635	7.9e-12
5.190	0.9454035957	7.9e-12
5.200	0.9457506235	7.9e-12
5.210	0.9460986346	7.9e-12
5.220	0.9464476166	7.9e-12
5.230	0.9467975575	8.0e-12
5.240	0.9471484453	8.0e-12
5.250	0.9475002680	8.0e-12
5.260	0.9478530139	8.0e-12
5.270	0.9482066714	8.0e-12
5.280	0.9485612291	8.0e-12
5.290	0.9489166756	8.0e-12
5.300	0.9492729995	8.0e-12
5.310	0.9496301899	8.1e-12
5.320	0.9499882356	8.1e-12
5.330	0.9503471258	8.1e-12
5.340	0.9507068498	8.1e-12
5.350	0.9510673969	8.1e-12
5.360	0.9514287565	8.1e-12
5.370	0.9517909182	8.1e-12
5.380	0.9521538717	8.1e-12
5.390	0.9525176068	8.1e-12
5.400	0.9528821133	8.2e-12
5.410	0.9532473814	8.2e-12
5.420	0.9536134010	8.2e-12
5.430	0.9539801624	8.2e-12
5.440	0.9543476559	8.2e-12
5.450	0.9547158720	8.2e-12
5.460	0.9550848011	8.2e-12
5.470	0.9554544339	8.2e-12
5.480	0.9558247611	8.2e-12
5.490	0.9561957734	8.2e-12
5.500	0.9565674618	8.2e-12
5.510	0.9569398173	8.2e-12
5.520	0.9573128310	8.2e-12
5.530	0.9576864940	8.2e-12
5.540	0.9580607976	8.3e-12
5.550	0.9584357333	8.3e-12
5.560	0.9588112923	8.3e-12
5.570	0.9591874663	8.3e-12
5.580	0.9595642470	8.3e-12
5.590	0.9599416259	8.3e-12
5.600	0.9603195949	8.3e-12
5.610	0.9606981459	8.3e-12
5.620	0.9610772709	8.3e-12
5.630	0.9614569618	8.3e-12
5.640	0.9618372108	8.3e-12
5.650	0.9622180101	8.3e-12
5.660	0.9625993519	8.3e-12
5.670	0.9629812287	8.3e-12
5.680	0.9633636328	8.3e-12
5.690	0.9637465568	8.3e-12
5.700	0.9641299932	8.3e-12
5.710	0.9645139347	8.3e-12
5.720	0.9648983741	8.3e-12
5.730	0.9652833040	8.3e-12
5.740	0.9656687175	8.3e-12
5.750	0.9660546074	8.3e-12
5.760	0.9664409667	8.3e-12
5.770	0.9668277886	8.3e-12
5.780	0.9672150662	8.3e-12
5.790	0.9676027927	8.3e-12
5.800	0.9679909613	8.3e-12
5.810	0.9683795655	8.3e-12
5.820	0.9687685986	8.3e-12
5.830	0.9691580541	8.3e-12
5.840	0.9695479256	8.3e-12
5.850	0.9699382067	8.3e-12
5.860	0.9703288909	8.3e-12
5.870	0.9707199722	8.3e-12
5.880	0.9711114442	8.3e-12
5.890	0.9715033007	8.3e-12
5.900	0.9718955358	8.3e-12
5.910	0.9722881434	8.3e-12
5.920	0.9726811174	8.3e-12
5.930	0.9730744520	8.3e-12
5.940	0.9734681414	8.3e-12
5.950	0.9738621796	8.3e-12
5.960	0.9742565610	8.3e-12
5.970	0.9746512798	8.3e-12
5.980	0.9750463305	8.3e-12
5.990	0.9754417073	8.3e-12
6.000	0.9758374049	8.3e-12
6.010	0.9762334177	8.3e-12
6.020	0.9766297403	8.3e-12
6.030	0.9770263673	8.3e-12
6.040	0.9774232933	8.3e-12
6.050	0.9778205132	8.3e-12
6.060	0.9782180216	8.3e-12
6.070	0.9786158134	8.3e-12
6.080	0.9790138834	8.3e-12
6.090	0.9794122266	8.3e-12
6.100	0.9798108380	8.3e-12
6.110	0.9802097125	8.3e-12
6.120	0.9806088452	8.3e-12
6.130	0.9810082313	8.3e-12
6.140	0.9814078658	8.3e-12
6.150	0.9818077439	8.3e-12
6.160	0.9822078609	8.3e-12
6.170	0.9826082122	8.3e-12
6.180	0.9830087929	8.3e-12
6.190	0.9834095985	8.2e-12
6.200	0.9838106243	8.2e-12
6.210	0.9842118660	8.2e-12
6.220	0.9846133188	8.2e-12
6.230	0.9850149784	8.2e-12
6.240	0.9854168404	8.2e-12
6.250	0.9858189004	8.2e-12
6.260	0.9862211540	8.2e-12
6.270	0.9866235969	8.2e-12
6.280	0.9870262249	8.2e-12
6.290	0.9874290337	8.2e-12
6.300	0.9878320192	8.2e-12
6.310	0.9882351772	8.2e-12
6.320	0.9886385036	8.2e-12
6.330	0.9890419943	8.2e-12
6.340	0.9894456453	8.2e-12
6.350	0.9898494526	8.2e-12
6.360	0.9902534123	8.2e-12
6.370	0.9906575203	8.2e-12
6.380	0.9910617729	8.1e-12
6.390	0.9914661661	8.1e-12
6.400	0.9918706962	8.1e-12
6.410	0.9922753593	8.1e-12
6.420	0.9926801517	8.1e-12
6.430	0.9930850697	8.1e-12
6.440	0.9934901096	8.1e-12
6.450	0.9938952677	8.1e-12
6.460	0.9943005404	8.1e-12
6.470	0.9947059241	8.1e-12
6.480	0.9951114153	8.1e-12
6.490	0.9955170105	8.1e-12
6.500	0.9959227060	8.1e-12
6.510	0.9963284986	8.1e-12
6.520	0.9967343847	8.1e-12
6.530	0.9971403609	8.1e-12
6.540	0.9975464239	8.0e-12
6.550	0.9979525704	8.0e-12
6.560	0.9983587969	8.0e-12
6.570	0.9987651003	8.0e-12
6.580	0.9991714772	8.0e-12
6.590	0.9995779245	8.0e-12
6.600	0.9999844390	8.0e-12
6.610	1.0003910174	8.0e-12
6.620	1.0007976567	8.0e-12
6.630	1.0012043536	8.0e-12
6.640	1.0016111052	8.0e-12
6.650	1.0020179084	8.0e-12
6.660	1.0024247601	8.0e-12
6.670	1.0028316574	8.0e-12
6.680	1.0032385972	7.9e-12
6.690	1.0036455766	7.9e-12
6.700	1.0040525926	7.9e-12
6.710	1.0044596424	7.9e-12
6.720	1.0048667231	7.9e-12
6.730	1.0052738318	7.9e-12
6.740	1.0056809657	7.9e-12
6.750	1.0060881220	7.9e-12
6.760	1.0064952979	7.9e-12
6.770	1.0069024906	7.9e-12
6.780	1.0073096975	7.9e-12
6.790	1.0077169157	7.9e-12
6.800	1.0081241427	7.9e-12
6.810	1.0085313758	7.9e-12
6.820	1.0089386122	7.9e-12
6.830	1.0093458495	7.8e-12
6.840	1.0097530850	7.8e-12
6.850	1.0101603161	7.8e-12
6.860	1.0105675403	7.8e-12
6.870	1.0109747550	7.8e-12
6.880	1.0113819578	7.8e-12
6.890	1.0117891461	7.8e-12
6.900	1.0121963176	7.8e-12
6.910	1.0126034697	7.8e-12
6.920	1.0130106000	7.8e-12
6.930	1.0134177061	7.8e-12
6.940	1.0138247857	7.8e-12
6.950	1.0142318364	7.8e-12
6.960	1.0146388558	7.8e-12
6.970	1.0150458417	7.8e-12
6.980	1.0154527917	7.7e-12
6.990	1.0158597035	7.7e-12
7.000	1.0162665749	7.7e-12
7.010	1.0166734036	7.7e-12
7.020	1.0170801875	7.7e-12
7.030	1.0174869242	7.7e-12
7.040	1.0178936117	7.7e-12
7.050	1.0183002478	7.7e-12
7.060	1.0187068302	7.7e-12
7.070	1.0191133569	7.7e-12
7.080	1.0195198258	7.7e-12
7.090	1.0199262347	7.7e-12
7.100	1.0203325816	7.7e-12
7.110	1.0207388644	7.7e-12
7.120	1.0211450812	7.6e-12
7.130	1.0215512297	7.6e-12
7.140	1.0219573082	7.6e-12
7.150	1.0223633144	7.6e-12
7.160	1.0227692466	7.6e-12
7.170	1.0231751027	7.6e-12
7.180	1.0235808808	7.6e-12
7.190	1.0239865789	7.6e-12
7.200	1.0243921952	7.6e-12
7.210	1.0247977278	7.6e-12
7.220	1.0252031747	7.6e-12
7.230	1.0256085341	7.6e-12
7.240	1.0260138042	7.6e-12
7.250	1.0264189832	7.5e-12
7.260	1.0268240692	7.5e-12
7.270	1.0272290604	7.5e-12
7.280	1.0276339551	7.5e-12
7.290	1.0280387514	7.5e-12
7.300	1.0284434477	7.5e-12
7.310	1.0288480422	7.5e-12
7.320	1.0292525331	7.5e-12
7.330	1.0296569187	7.5e-12
7.340	1.0300611974	7.5e-12
7.350	1.0304653675	7.5e-12
7.360	1.0308694273	7.5e-12
7.370	1.0312733751	7.4e-12
7.380	1.0316772094	7.4e-12
7.390	1.0320809284	7.4e-12
7.400	1.0324845306	7.4e-12
7.410	1.0328880144	7.4e-12
7.420	1.0332913781	7.4e-12
7.430	1.0336946203	7.4e-12
7.440	1.0340977394	7.4e-12
7.450	1.0345007337	7.4e-12
7.460	1.0349036018	7.4e-12
7.470	1.0353063422	7.4e-12
7.480	1.0357089533	7.4e-12
7.490	1.0361114337	7.3e-12
7.500	1.0365137819	7.3e-12
7.510	1.0369159964	7.3e-12
7.520	1.0373180757	7.3e-12
7.530	1.0377200184	7.3e-12
7.540	1.0381218231	7.3e-12
7.550	1.0385234883	7.3e-12
7.560	1.0389250127	7.3e-12
7.570	1.0393263949	7.3e-12
7.580	1.0397276334	7.3e-12
7.590	1.0401287268	7.3e-12
7.600	1.0405296739	7.3e-12
7.610	1.0409304733	7.2e-12
7.620	1.0413311236	7.2e-12
7.630	1.0417316235	7.2e-12
7.640	1.0421319717	7.2e-12
7.650	1.0425321669	7.2e-12
7.660	1.0429322078	7.2e-12
7.670	1.0433320931	7.2e-12
7.680	1.0437318216	7.2e-12
7.690	1.0441313919	7.2e-12
7.700	1.0445308028	7.2e-12
7.710	1.0449300531	7.2e-12
7.720	1.0453291415	7.2e-12
7.730	1.0457280669	7.1e-12
7.740	1.0461268280	7.1e-12
7.750	1.0465254237	1.0e-10
7.760	1.0469238526	1.0e-10
7.770	1.0473221138	1.0e-10
7.780	1.0477202059	1.0e-10
7.790	1.0481181278	1.0e-10
7.800	1.0485158784	1.0e-10
7.810	1.0489134566	1.0e-10
7.820	1.0493108611	1.0e-10
7.830	1.0497080910	1.0e-10
7.840	1.0501051450	1.0e-10
7.850	1.0505020221	1.0e-10
7.860	1.0508987212	1.0e-10
7.870	1.0512952412	1.0e-10
7.880	1.0516915810	1.0e-10
7.890	1.0520877396	1.0e-10
7.900	1.0524837159	1.0e-10
7.910	1.0528795088	1.0e-10
7.920	1.0532751174	1.0e-10
7.930	1.0536705406	1.0e-10
7.940	1.0540657774	1.0e-10
7.950	1.0544608267	9.9e-11
7.960	1.0548556877	9.9e-11
7.970	1.0552503592	9.9e-11
7.980	1.0556448402	9.9e-11
7.990	1.0560391300	9.9e-11
8.000	1.0564332273	9.8e-11
8.010	1.0568271314	9.8e-11
8.020	1.0572208411	9.8e-11
8.030	1.0576143557	9.8e-11
8.040	1.0580076742	9.7e-11
8.050	1.0584007955	9.7e-11
8.060	1.0587937189	9.7e-11
8.070	1.0591864434	9.7e-11
8.080	1.0595789681	9.6e-11
8.090	1.0599712922	9.6e-11
8.100	1.0603634146	9.6e-11
8.110	1.0607553346	9.6e-11
8.120	1.0611470513	9.6e-11
8.130	1.0615385637	9.5e-11
8.140	1.0619298712	9.5e-11
8.150	1.0623209727	9.5e-11
8.160	1.0627118675	9.5e-11
8.170	1.0631025548	9.5e-11
8.180	1.0634930336	9.4e-11
8.190	1.0638833032	9.4e-11
8.200	1.0642733628	9.4e-11
8.210	1.0646632116	9.4e-11
8.220	1.0650528487	9.3e-11
8.230	1.0654422735	9.3e-11
8.240	1.0658314850	9.3e-11
8.250	1.0662204826	9.3e-11
8.260	1.0666092654	9.3e-11
8.270	1.0669978327	9.2e-11
8.280	1.0673861837	9.2e-11
8.290	1.0677743178	9.2e-11
8.300	1.0681622340	9.2e-11
8.310	1.0685499318	9.2e-11
8.320	1.0689374104	9.1e-11
8.330	1.0693246690	9.1e-11
8.340	1.0697117070	9.1e-11
8.350	1.0700985236	9.1e-11
8.360	1.0704851182	9.1e-11
8.370	1.0708714899	9.0e-11
8.380	1.0712576383	9.0e-11
