T[MeV]	f_value	f_error
0.600	9.5725750290	9.0e-10
0.610	8.7581800465	1.6e-10
0.620	8.0444947597	1.8e-10
0.630	7.4163391071	1.9e-10
0.640	6.8611799636	2.0e-10
0.650	6.3686135539	2.6e-10
0.660	5.9299590872	1.9e-10
0.670	5.5379377238	1.8e-10
0.680	5.1864174428	1.7e-10
0.690	4.8702091255	4.6e-10
0.700	4.5849026824	4.0e-10
0.710	4.3267346715	3.5e-10
0.720	4.0924808191	3.0e-10
0.730	3.8793683370	2.6e-10
0.740	3.6850040608	2.2e-10
0.750	3.5073152901	1.8e-10
0.760	3.3445008805	1.5e-10
0.770	3.1949906408	1.3e-10
0.780	3.0574114951	1.0e-10
0.790	2.9305591726	8.6e-11
0.800	2.8133744366	7.0e-11
0.810	2.7049230526	5.7e-11
0.820	2.6043788519	4.5e-11
0.830	2.5110093623	3.6e-11
0.840	2.4241635804	2.9e-11
0.850	2.3432615330	2.4e-11
0.860	2.2677853387	2.1e-11
0.870	2.1972715345	1.9e-11
0.880	2.1313044665	1.8e-11
0.890	2.0695105855	1.7e-11
0.900	2.0115535072	1.7e-11
0.910	1.9571297269	1.7e-11
0.920	1.9059648904	1.7e-11
0.930	1.8578105429	1.7e-11
0.940	1.8124412863	1.7e-11
0.950	1.7696522906	1.7e-11
0.960	1.7292571076	1.7e-11
0.970	1.6910857488	1.7e-11
0.980	1.6549829899	1.7e-11
0.990	1.6208068739	1.7e-11
1.000	1.5884273861	1.7e-11
1.010	1.5577252792	1.7e-11
1.020	1.5285910296	1.7e-11
1.030	1.5009239086	1.6e-11
1.040	1.4746311548	1.6e-11
1.050	1.4496272345	1.6e-11
1.060	1.4258331811	1.5e-11
1.070	1.4031760019	1.5e-11
1.080	1.3815881477	1.5e-11
1.090	1.3610070345	1.4e-11
1.100	1.3413746141	1.4e-11
1.110	1.3226369866	1.3e-11
1.120	1.3047440514	1.3e-11
1.130	1.2876491905	1.2e-11
1.140	1.2713089832	1.2e-11
1.150	1.2556829472	1.1e-11
1.160	1.2407333031	1.1e-11
1.170	1.2264247611	1.1e-11
1.180	1.2127243271	1.0e-11
1.190	1.1996011256	9.7e-12
1.200	1.1870262385	9.3e-12
1.210	1.1749725579	8.9e-12
1.220	1.1634146522	8.5e-12
1.230	1.1523286422	8.1e-12
1.240	1.1416920893	7.7e-12
1.250	1.1314838919	7.4e-12
1.260	1.1216841907	7.0e-12
1.270	1.1122742817	6.7e-12
1.280	1.1032365365	6.4e-12
1.290	1.0945543280	6.1e-12
1.300	1.0862119632	5.8e-12
1.310	1.0781946207	5.5e-12
1.320	1.0704882925	5.2e-12
1.330	1.0630797311	4.9e-12
1.340	1.0559564000	4.7e-12
1.350	1.0491064284	4.4e-12
1.360	1.0425185688	4.2e-12
1.370	1.0361821577	3.9e-12
1.380	1.0300870798	3.7e-12
1.390	1.0242237338	3.5e-12
1.400	1.0185830015	3.3e-12
1.410	1.0131562186	3.1e-12
1.420	1.0079351474	3.0e-12
1.430	1.0029119519	2.8e-12
1.440	0.9980791744	2.6e-12
1.450	0.9934297133	2.5e-12
1.460	0.9889568029	2.3e-12
1.470	0.9846539943	2.2e-12
1.480	0.9805151374	2.0e-12
1.490	0.9765343648	1.9e-12
1.500	0.9727060756	1.8e-12
1.510	0.9690249210	1.7e-12
1.520	0.9654857911	1.6e-12
1.530	0.9620838014	1.5e-12
1.540	0.9588142814	1.4e-12
1.550	0.9556727629	1.3e-12
1.560	0.9526549698	1.2e-12
1.570	0.9497568078	1.1e-12
1.580	0.9469743556	1.1e-12
1.590	0.9443038555	9.9e-13
1.600	0.9417417056	9.3e-13
1.610	0.9392844519	8.7e-13
1.620	0.9369287808	8.1e-13
1.630	0.9346715126	7.5e-13
1.640	0.9325095945	7.0e-13
1.650	0.9304400950	6.5e-13
1.660	0.9284601976	6.1e-13
1.670	0.9265671957	5.7e-13
1.680	0.9247584873	5.3e-13
1.690	0.9230315701	4.9e-13
1.700	0.9213840369	4.6e-13
1.710	0.9198135713	4.3e-13
1.720	0.9183179433	4.0e-13
1.730	0.9168950059	3.7e-13
1.740	0.9155426909	3.5e-13
1.750	0.9142590056	3.2e-13
1.760	0.9130420294	3.0e-13
1.770	0.9118899108	2.9e-13
1.780	0.9108008643	2.7e-13
1.790	0.9097731673	2.5e-13
1.800	0.9088051580	2.4e-13
1.810	0.9078952323	2.3e-13
1.820	0.9070418413	2.3e-13
1.830	0.9062434897	2.2e-13
1.840	0.9054987326	2.2e-13
1.850	0.9048061744	2.2e-13
1.860	0.9041644660	2.2e-13
1.870	0.9035723032	2.3e-13
1.880	0.9030284252	2.3e-13
1.890	0.9025316121	2.4e-13
1.900	0.9020806842	2.4e-13
1.910	0.9016744996	2.5e-13
1.920	0.9013119533	2.5e-13
1.930	0.9009919755	2.6e-13
1.940	0.9007135302	2.7e-13
1.950	0.9004756139	2.7e-13
1.960	0.9002772547	2.8e-13
1.970	0.9001175105	2.8e-13
1.980	0.8999954685	2.9e-13
1.990	0.8999102438	3.0e-13
2.000	0.8998609781	3.0e-13
2.010	0.8998468393	3.1e-13
2.020	0.8998670202	3.1e-13
2.030	0.8999207375	3.2e-13
2.040	0.9000072312	3.2e-13
2.050	0.9001257635	3.3e-13
2.060	0.9002756184	3.3e-13
2.070	0.9004561004	3.4e-13
2.080	0.9006665342	3.4e-13
2.090	0.9009062638	3.5e-13
2.100	0.9011746518	3.5e-13
2.110	0.9014710790	3.6e-13
2.120	0.9017949433	3.6e-13
2.130	0.9021456598	3.6e-13
2.140	0.9025226595	3.7e-13
2.150	0.9029253892	3.7e-13
2.160	0.9033533110	3.7e-13
2.170	0.9038059015	3.8e-13
2.180	0.9042826514	3.8e-13
2.190	0.9047830653	3.8e-13
2.200	0.9053066609	3.8e-13
2.210	0.9058529688	3.9e-13
2.220	0.9064215321	3.9e-13
2.230	0.9070119056	3.9e-13
2.240	0.9076236560	3.9e-13
2.250	0.9082563612	4.0e-13
2.260	0.9089096099	4.0e-13
2.270	0.9095830015	4.0e-13
2.280	0.9102761454	4.0e-13
2.290	0.9109886611	4.0e-13
2.300	0.9117201776	4.0e-13
2.310	0.9124703332	9.0e-11
2.320	0.9132387753	8.8e-11
2.330	0.9140251600	8.6e-11
2.340	0.9148291518	8.4e-11
2.350	0.9156504236	8.3e-11
2.360	0.9164886560	8.1e-11
2.370	0.9173435375	7.9e-11
2.380	0.9182147642	7.8e-11
2.390	0.9191020393	7.6e-11
2.400	0.9200050731	7.5e-11
2.410	0.9209235830	7.3e-11
2.420	0.9218572927	7.2e-11
2.430	0.9228059326	7.1e-11
2.440	0.9237692393	6.9e-11
2.450	0.9247469556	6.8e-11
2.460	0.9257388301	6.7e-11
2.470	0.9267446173	6.5e-11
2.480	0.9277640772	6.4e-11
2.490	0.9287969753	6.3e-11
2.500	0.9298430824	6.2e-11
2.510	0.9309021743	6.1e-11
2.520	0.9319740320	5.9e-11
2.530	0.9330584412	5.8e-11
2.540	0.9341551925	5.7e-11
2.550	0.9352640810	5.6e-11
2.560	0.9363849063	5.5e-11
2.570	0.9375174723	5.4e-11
2.580	0.9386615872	5.3e-11
2.590	0.9398170633	5.2e-11
2.600	0.9409837169	5.1e-11
2.610	0.9421613683	5.0e-11
2.620	0.9433498416	5.0e-11
2.630	0.9445489644	4.9e-11
2.640	0.9457585681	4.8e-11
2.650	0.9469784877	4.7e-11
2.660	0.9482085614	4.6e-11
2.670	0.9494486308	4.5e-11
2.680	0.9506985408	4.5e-11
2.690	0.9519581395	4.4e-11
2.700	0.9532272780	4.3e-11
2.710	0.9545058105	4.2e-11
2.720	0.9557935941	4.2e-11
2.730	0.9570904886	4.1e-11
2.740	0.9583963569	4.0e-11
2.750	0.9597110643	4.0e-11
2.760	0.9610344790	3.9e-11
2.770	0.9623664716	3.8e-11
2.780	0.9637069154	3.8e-11
2.790	0.9650556861	3.7e-11
2.800	0.9664126616	3.6e-11
2.810	0.9677777224	3.6e-11
2.820	0.9691507511	3.5e-11
2.830	0.9705316328	3.5e-11
2.840	0.9719202545	3.4e-11
2.850	0.9733165055	3.3e-11
2.860	0.9747202769	3.3e-11
2.870	0.9761314622	3.2e-11
2.880	0.9775499567	3.2e-11
2.890	0.9789756576	3.1e-11
2.900	0.9804084640	3.1e-11
2.910	0.9818482768	3.0e-11
2.920	0.9832949989	3.0e-11
2.930	0.9847485348	2.9e-11
2.940	0.9862087906	2.9e-11
2.950	0.9876756744	2.9e-11
2.960	0.9891490956	2.8e-11
2.970	0.9906289654	2.8e-11
2.980	0.9921151966	2.7e-11
2.990	0.9936077034	2.7e-11
3.000	0.9951064016	2.6e-11
3.010	0.9966112083	2.6e-11
3.020	0.9981220423	2.6e-11
3.030	0.9996388235	2.5e-11
3.040	1.0011614735	2.5e-11
3.050	1.0026899148	2.4e-11
3.060	1.0042240717	2.4e-11
3.070	1.0057638694	2.4e-11
3.080	1.0073092345	2.3e-11
3.090	1.0088600949	2.3e-11
3.100	1.0104163796	2.3e-11
3.110	1.0119780187	2.2e-11
3.120	1.0135449436	2.2e-11
3.130	1.0151170868	2.2e-11
3.140	1.0166943818	2.1e-11
3.150	1.0182767633	2.1e-11
3.160	1.0198641670	2.1e-11
3.170	1.0214565295	2.1e-11
3.180	1.0230537886	2.0e-11
3.190	1.0246558831	2.0e-11
3.200	1.0262627526	2.0e-11
3.210	1.0278743378	1.9e-11
3.220	1.0294905802	1.9e-11
3.230	1.0311114223	1.9e-11
3.240	1.0327368075	1.9e-11
3.250	1.0343666800	1.8e-11
3.260	1.0360009849	1.8e-11
3.270	1.0376396682	1.8e-11
3.280	1.0392826766	1.8e-11
3.290	1.0409299577	1.7e-11
3.300	1.0425814598	1.7e-11
3.310	1.0442371321	1.7e-11
3.320	1.0458969244	1.7e-11
3.330	1.0475607873	1.6e-11
3.340	1.0492286723	1.6e-11
3.350	1.0509005313	1.6e-11
3.360	1.0525763171	1.6e-11
3.370	1.0542559833	1.5e-11
3.380	1.0559394838	1.5e-11
3.390	1.0576267736	1.5e-11
3.400	1.0593178080	1.5e-11
3.410	1.0610125431	1.5e-11
3.420	1.0627109356	1.4e-11
3.430	1.0644129428	1.4e-11
3.440	1.0661185225	1.4e-11
3.450	1.0678276334	1.4e-11
3.460	1.0695402344	1.4e-11
3.470	1.0712562852	1.4e-11
3.480	1.0729757459	1.3e-11
3.490	1.0746985774	1.3e-11
3.500	1.0764247408	1.3e-11
3.510	1.0781541980	1.3e-11
3.520	1.0798869113	1.3e-11
3.530	1.0816228435	1.3e-11
3.540	1.0833619579	1.2e-11
3.550	1.0851042183	1.2e-11
3.560	1.0868495890	1.2e-11
3.570	1.0885980348	1.2e-11
3.580	1.0903495208	1.2e-11
3.590	1.0921040128	1.2e-11
3.600	1.0938614768	1.1e-11
3.610	1.0956218795	1.1e-11
3.620	1.0973851877	1.1e-11
3.630	1.0991513689	1.1e-11
3.640	1.1009203909	1.1e-11
3.650	1.1026922220	1.1e-11
3.660	1.1044668308	1.1e-11
3.670	1.1062441862	1.1e-11
3.680	1.1080242578	1.0e-11
3.690	1.1098070154	1.0e-11
3.700	1.1115924290	1.0e-11
3.710	1.1133804692	1.0e-11
3.720	1.1151711069	9.9e-12
3.730	1.1169643134	9.8e-12
3.740	1.1187600603	9.6e-12
3.750	1.1205583195	9.5e-12
3.760	1.1223590633	9.4e-12
3.770	1.1241622643	9.3e-12
3.780	1.1259678955	9.2e-12
3.790	1.1277759301	9.1e-12
3.800	1.1295863417	9.0e-12
3.810	1.1313991042	8.9e-12
3.820	1.1332141918	8.8e-12
3.830	1.1350315790	8.6e-12
3.840	1.1368512406	8.5e-12
3.850	1.1386731516	8.4e-12
3.860	1.1404972875	8.3e-12
3.870	1.1423236239	8.2e-12
3.880	1.1441521368	8.2e-12
3.890	1.1459828022	8.1e-12
3.900	1.1478155968	8.0e-12
3.910	1.1496504973	7.9e-12
3.920	1.1514874806	7.8e-12
3.930	1.1533265239	7.7e-12
3.940	1.1551676049	7.6e-12
3.950	1.1570107013	7.5e-12
3.960	1.1588557910	7.4e-12
3.970	1.1607028524	7.3e-12
3.980	1.1625518638	7.3e-12
3.990	1.1644028041	7.2e-12
4.000	1.1662556521	7.1e-12
4.010	1.1681103869	7.0e-12
4.020	1.1699669882	6.9e-12
4.030	1.1718254353	6.9e-12
4.040	1.1736857082	6.8e-12
4.050	1.1755477868	6.7e-12
4.060	1.1774116515	6.6e-12
4.070	1.1792772828	6.6e-12
4.080	1.1811446612	6.5e-12
4.090	1.1830137676	6.4e-12
4.100	1.1848845831	6.3e-12
4.110	1.1867570890	6.3e-12
4.120	1.1886312667	6.2e-12
4.130	1.1905070979	6.1e-12
4.140	1.1923845644	6.1e-12
4.150	1.1942636481	6.0e-12
4.160	1.1961443314	5.9e-12
4.170	1.1980265965	5.9e-12
4.180	1.1999104260	5.8e-12
4.190	1.2017958027	5.7e-12
4.200	1.2036827094	5.7e-12
4.210	1.2055711292	5.6e-12
4.220	1.2074610454	5.6e-12
4.230	1.2093524413	5.5e-12
4.240	1.2112453006	5.4e-12
4.250	1.2131396068	5.4e-12
4.260	1.2150353440	5.3e-12
4.270	1.2169324961	5.3e-12
4.280	1.2188310474	5.2e-12
4.290	1.2207309821	5.2e-12
4.300	1.2226322848	5.1e-12
4.310	1.2245349402	5.0e-12
4.320	1.2264389329	5.0e-12
4.330	1.2283442480	4.9e-12
4.340	1.2302508704	4.9e-12
4.350	1.2321587855	4.8e-12
4.360	1.2340679786	4.8e-12
4.370	1.2359784351	4.7e-12
4.380	1.2378901407	4.7e-12
4.390	1.2398030811	4.6e-12
4.400	1.2417172423	4.6e-12
4.410	1.2436326102	4.5e-12
4.420	1.2455491710	4.5e-12
4.430	1.2474669110	4.4e-12
4.440	1.2493858165	4.4e-12
4.450	1.2513058741	4.4e-12
4.460	1.2532270705	4.3e-12
4.470	1.2551493923	4.3e-12
4.480	1.2570728266	4.2e-12
4.490	1.2589973602	4.2e-12
4.500	1.2609229802	4.1e-12
4.510	1.2628496741	4.1e-12
4.520	1.2647774290	4.1e-12
4.530	1.2667062324	4.0e-12
4.540	1.2686360719	4.0e-12
4.550	1.2705669351	3.9e-12
4.560	1.2724988100	3.9e-12
4.570	1.2744316842	3.9e-12
4.580	1.2763655460	3.8e-12
4.590	1.2783003832	3.8e-12
4.600	1.2802361842	3.7e-12
4.610	1.2821729373	3.7e-12
4.620	1.2841106308	3.7e-12
4.630	1.2860492532	3.6e-12
4.640	1.2879887933	3.6e-12
4.650	1.2899292396	3.6e-12
4.660	1.2918705809	3.5e-12
4.670	1.2938128062	3.5e-12
4.680	1.2957559045	3.5e-12
4.690	1.2976998647	3.4e-12
4.700	1.2996446762	3.4e-12
4.710	1.3015903281	3.4e-12
4.720	1.3035368098	3.3e-12
4.730	1.3054841108	3.3e-12
4.740	1.3074322205	3.3e-12
4.750	1.3093811286	3.2e-12
4.760	1.3113308248	3.2e-12
4.770	1.3132812989	3.2e-12
4.780	1.3152325407	3.1e-12
4.790	1.3171845401	3.1e-12
4.800	1.3191372874	3.1e-12
4.810	1.3210907724	3.0e-12
4.820	1.3230449855	3.0e-12
4.830	1.3249999169	3.0e-12
4.840	1.3269555570	3.0e-12
4.850	1.3289118962	2.9e-12
4.860	1.3308689250	2.9e-12
4.870	1.3328266340	2.9e-12
4.880	1.3347850139	2.8e-12
4.890	1.3367440554	2.8e-12
4.900	1.3387037493	2.8e-12
4.910	1.3406640864	2.8e-12
4.920	1.3426250579	2.7e-12
4.930	1.3445866546	2.7e-12
4.940	1.3465488678	2.7e-12
4.950	1.3485116884	2.7e-12
4.960	1.3504751079	2.6e-12
4.970	1.3524391175	2.6e-12
4.980	1.3544037086	2.6e-12
4.990	1.3563688726	2.6e-12
5.000	1.3583346010	2.5e-12
5.010	1.3603008855	2.5e-12
5.020	1.3622677176	2.5e-12
5.030	1.3642350891	2.5e-12
5.040	1.3662029918	2.4e-12
5.050	1.3681714175	2.4e-12
5.060	1.3701403580	2.4e-12
5.070	1.3721098054	2.4e-12
5.080	1.3740797517	2.4e-12
5.090	1.3760501889	2.3e-12
5.100	1.3780211092	2.3e-12
5.110	1.3799925049	2.3e-12
5.120	1.3819643681	2.3e-12
5.130	1.3839366913	2.2e-12
5.140	1.3859094668	2.2e-12
5.150	1.3878826870	2.2e-12
5.160	1.3898563444	2.2e-12
5.170	1.3918304317	2.2e-12
5.180	1.3938049413	2.1e-12
5.190	1.3957798660	2.1e-12
5.200	1.3977551986	2.1e-12
5.210	1.3997309317	2.1e-12
5.220	1.4017070583	2.1e-12
5.230	1.4036835712	2.0e-12
5.240	1.4056604633	2.0e-12
5.250	1.4076377276	2.0e-12
5.260	1.4096153573	2.0e-12
5.270	1.4115933454	2.0e-12
5.280	1.4135716850	2.0e-12
5.290	1.4155503693	1.9e-12
5.300	1.4175293917	1.9e-12
5.310	1.4195087453	1.9e-12
5.320	1.4214884236	1.9e-12
5.330	1.4234684200	1.9e-12
5.340	1.4254487278	1.9e-12
5.350	1.4274293407	1.8e-12
5.360	1.4294102521	1.8e-12
5.370	1.4313914557	1.8e-12
5.380	1.4333729450	1.8e-12
5.390	1.4353547139	1.8e-12
5.400	1.4373367559	1.8e-12
5.410	1.4393190650	1.7e-12
5.420	1.4413016349	1.7e-12
5.430	1.4432844594	1.7e-12
5.440	1.4452675326	1.7e-12
5.450	1.4472508484	1.7e-12
5.460	1.4492344007	1.7e-12
5.470	1.4512181837	1.6e-12
5.480	1.4532021914	1.6e-12
5.490	1.4551864180	1.6e-12
5.500	1.4571708576	1.6e-12
5.510	1.4591555044	1.6e-12
5.520	1.4611403528	1.6e-12
5.530	1.4631253970	1.6e-12
5.540	1.4651106314	1.5e-12
5.550	1.4670960504	1.5e-12
5.560	1.4690816484	1.5e-12
5.570	1.4710674198	1.5e-12
5.580	1.4730533592	1.5e-12
5.590	1.4750394611	1.5e-12
5.600	1.4770257201	1.5e-12
5.610	1.4790121309	1.5e-12
5.620	1.4809986880	1.4e-12
5.630	1.4829853863	1.4e-12
5.640	1.4849722204	1.4e-12
5.650	1.4869591851	1.4e-12
5.660	1.4889462753	1.4e-12
5.670	1.4909334858	1.4e-12
5.680	1.4929208115	1.4e-12
5.690	1.4949082472	1.4e-12
5.700	1.4968957881	1.3e-12
5.710	1.4988834291	1.3e-12
5.720	1.5008711652	1.3e-12
5.730	1.5028589915	1.3e-12
5.740	1.5048469031	1.3e-12
5.750	1.5068348951	1.3e-12
5.760	1.5088229628	1.3e-12
5.770	1.5108111013	1.3e-12
5.780	1.5127993059	1.3e-12
5.790	1.5147875719	1.2e-12
5.800	1.5167758946	1.2e-12
5.810	1.5187642692	1.2e-12
5.820	1.5207526913	1.2e-12
5.830	1.5227411563	1.2e-12
5.840	1.5247296595	1.2e-12
5.850	1.5267181964	1.2e-12
5.860	1.5287067626	1.2e-12
5.870	1.5306953536	1.2e-12
5.880	1.5326839650	1.1e-12
5.890	1.5346725924	1.1e-12
5.900	1.5366612315	1.1e-12
5.910	1.5386498778	1.1e-12
5.920	1.5406385271	1.1e-12
5.930	1.5426271751	1.1e-12
5.940	1.5446158177	1.1e-12
5.950	1.5466044505	1.1e-12
5.960	1.5485930694	1.1e-12
5.970	1.5505816703	1.1e-12
5.980	1.5525702490	1.1e-12
5.990	1.5545588015	1.0e-12
6.000	1.5565473236	1.0e-12
