T[MeV]	f_value	f_error
1.000	0.8083240867	4.9e-11
1.010	0.8082741501	4.8e-11
1.020	0.8083389371	4.6e-11
1.030	0.8085130439	4.5e-11
1.040	0.8087913774	4.4e-11
1.050	0.8091691330	4.3e-11
1.060	0.8096417756	4.2e-11
1.070	0.8102050209	4.1e-11
1.080	0.8108548188	4.0e-11
1.090	0.8115873380	3.9e-11
1.100	0.8123989519	3.8e-11
1.110	0.8132862248	3.7e-11
1.120	0.8142459005	3.6e-11
1.130	0.8152748906	3.5e-11
1.140	0.8163702640	3.4e-11
1.150	0.8175292374	3.4e-11
1.160	0.8187491664	3.3e-11
1.170	0.8200275368	3.2e-11
1.180	0.8213619569	3.1e-11
1.190	0.8227501508	3.1e-11
1.200	0.8241899510	3.0e-11
1.210	0.8256792923	3.0e-11
1.220	0.8272162063	2.9e-11
1.230	0.8287988155	2.8e-11
1.240	0.8304253286	2.8e-11
1.250	0.8320940352	2.7e-11
1.260	0.8338033021	2.7e-11
1.270	0.8355515683	2.6e-11
1.280	0.8373373417	2.6e-11
1.290	0.8391591952	2.5e-11
1.300	0.8410157632	2.5e-11
1.310	0.8429057386	2.5e-11
1.320	0.8448278697	2.4e-11
1.330	0.8467809570	2.4e-11
1.340	0.8487638511	2.3e-11
1.350	0.8507754498	2.3e-11
1.360	0.8528146959	2.3e-11
1.370	0.8548805748	2.2e-11
1.380	0.8569721126	2.2e-11
1.390	0.8590883740	2.2e-11
1.400	0.8612284606	2.1e-11
1.410	0.8633915088	2.1e-11
1.420	0.8655766885	2.1e-11
1.430	0.8677832011	2.0e-11
1.440	0.8700102786	8.7e-11
1.450	0.8722571818	8.5e-11
1.460	0.8745231988	8.4e-11
1.470	0.8768076443	8.3e-11
1.480	0.8791098580	8.2e-11
1.490	0.8814292034	8.1e-11
1.500	0.8837650671	8.0e-11
1.510	0.8861168575	7.9e-11
1.520	0.8884840039	7.8e-11
1.530	0.8908659558	7.7e-11
1.540	0.8932621815	7.6e-11
1.550	0.8956721679	7.5e-11
1.560	0.8980954194	7.4e-11
1.570	0.9005314570	7.3e-11
1.580	0.9029798181	7.2e-11
1.590	0.9054400554	7.1e-11
1.600	0.9079117361	7.0e-11
1.610	0.9103944421	6.9e-11
1.620	0.9128877686	6.9e-11
1.630	0.9153913237	6.8e-11
1.640	0.9179047283	6.7e-11
1.650	0.9204276153	6.6e-11
1.660	0.9229596289	6.6e-11
1.670	0.9255004247	6.5e-11
1.680	0.9280496688	9.2e-11
1.690	0.9306070375	9.1e-11
1.700	0.9331722171	9.0e-11
1.710	0.9357449032	8.9e-11
1.720	0.9383248007	8.8e-11
1.730	0.9409116231	8.7e-11
1.740	0.9435050925	8.6e-11
1.750	0.9461049390	8.5e-11
1.760	0.9487109005	8.4e-11
1.770	0.9513227227	8.4e-11
1.780	0.9539401582	8.3e-11
1.790	0.9565629669	8.2e-11
1.800	0.9591909153	8.1e-11
1.810	0.9618237765	8.0e-11
1.820	0.9644613298	8.0e-11
1.830	0.9671033606	7.9e-11
1.840	0.9697496602	7.8e-11
1.850	0.9724000254	7.8e-11
1.860	0.9750542587	7.7e-11
1.870	0.9777121676	7.6e-11
1.880	0.9803735649	7.6e-11
1.890	0.9830382682	7.5e-11
1.900	0.9857060999	7.4e-11
1.910	0.9883768869	7.4e-11
1.920	0.9910504608	7.3e-11
1.930	0.9937266571	7.2e-11
1.940	0.9964053159	7.2e-11
1.950	0.9990862811	7.1e-11
1.960	1.0017694004	7.1e-11
1.970	1.0044545255	7.0e-11
1.980	1.0071415116	7.0e-11
1.990	1.0098302175	6.9e-11
2.000	1.0125205055	6.8e-11
2.010	1.0152122410	6.8e-11
2.020	1.0179052929	1.0e-10
2.030	1.0205995332	1.0e-10
2.040	1.0232948366	1.0e-10
2.050	1.0259910811	9.9e-11
2.060	1.0286881475	9.9e-11
2.070	1.0313859193	9.8e-11
2.080	1.0340842826	9.7e-11
2.090	1.0367831264	9.7e-11
2.100	1.0394823419	9.6e-11
2.110	1.0421818230	9.5e-11
2.120	1.0448814659	9.5e-11
2.130	1.0475811691	9.4e-11
2.140	1.0502808336	9.3e-11
2.150	1.0529803623	9.3e-11
2.160	1.0556796604	9.2e-11
2.170	1.0583786350	9.1e-11
2.180	1.0610771956	9.1e-11
2.190	1.0637752534	9.0e-11
2.200	1.0664727215	9.0e-11
2.210	1.0691695150	8.9e-11
2.220	1.0718655507	8.9e-11
2.230	1.0745607474	8.8e-11
2.240	1.0772550253	8.7e-11
2.250	1.0799483065	8.7e-11
2.260	1.0826405148	8.6e-11
2.270	1.0853315755	8.6e-11
2.280	1.0880214154	8.5e-11
2.290	1.0907099629	8.5e-11
2.300	1.0933971479	8.4e-11
2.310	1.0960829017	8.4e-11
2.320	1.0987671571	8.3e-11
2.330	1.1014498482	8.3e-11
2.340	1.1041309106	8.2e-11
2.350	1.1068102809	8.2e-11
2.360	1.1094878973	8.1e-11
2.370	1.1121636992	8.1e-11
2.380	1.1148376270	8.1e-11
2.390	1.1175096227	8.0e-11
2.400	1.1201796291	8.0e-11
2.410	1.1228475903	7.9e-11
2.420	1.1255134515	7.9e-11
2.430	1.1281771592	7.8e-11
2.440	1.1308386606	7.8e-11
2.450	1.1334979042	7.8e-11
2.460	1.1361548396	7.7e-11
2.470	1.1388094171	7.7e-11
2.480	1.1414615882	7.6e-11
2.490	1.1441113053	7.6e-11
2.500	1.1467585220	7.6e-11
2.510	1.1494031923	7.5e-11
2.520	1.1520452716	7.5e-11
2.530	1.1546847159	7.5e-11
2.540	1.1573214822	7.4e-11
2.550	1.1599555283	7.4e-11
2.560	1.1625868128	7.4e-11
2.570	1.1652152953	7.3e-11
2.580	1.1678409360	7.3e-11
2.590	1.1704636959	7.3e-11
2.600	1.1730835369	7.2e-11
2.610	1.1757004216	7.2e-11
2.620	1.1783143134	7.2e-11
2.630	1.1809251761	7.1e-11
2.640	1.1835329748	7.1e-11
2.650	1.1861376747	7.1e-11
2.660	1.1887392422	7.0e-11
2.670	1.1913376440	7.0e-11
2.680	1.1939328476	7.0e-11
2.690	1.1965248213	6.9e-11
2.700	1.1991135337	6.9e-11
2.710	1.2016989544	6.9e-11
2.720	1.2042810534	6.9e-11
2.730	1.2068598013	6.8e-11
2.740	1.2094351694	6.8e-11
2.750	1.2120071296	6.8e-11
2.760	1.2145756542	6.7e-11
2.770	1.2171407162	6.7e-11
2.780	1.2197022892	6.7e-11
2.790	1.2222603472	6.7e-11
2.800	1.2248148649	6.6e-11
2.810	1.2273658173	6.6e-11
2.820	1.2299131803	6.6e-11
2.830	1.2324569298	6.6e-11
2.840	1.2349970427	6.5e-11
2.850	1.2375334961	6.5e-11
2.860	1.2400662676	6.5e-11
2.870	1.2425953355	6.5e-11
2.880	1.2451206782	6.4e-11
2.890	1.2476422749	6.4e-11
2.900	1.2501601051	6.4e-11
2.910	1.2526741487	6.4e-11
2.920	1.2551843863	6.4e-11
2.930	1.2576907985	6.3e-11
2.940	1.2601933668	6.3e-11
2.950	1.2626920727	6.3e-11
2.960	1.2651868985	6.3e-11
2.970	1.2676778266	6.2e-11
2.980	1.2701648399	6.2e-11
2.990	1.2726479217	6.2e-11
3.000	1.2751270558	6.2e-11
3.010	1.2776022263	6.2e-11
3.020	1.2800734175	6.1e-11
3.030	1.2825406144	6.1e-11
3.040	1.2850038020	6.1e-11
3.050	1.2874629661	6.1e-11
3.060	1.2899180924	6.1e-11
3.070	1.2923691672	6.0e-11
3.080	1.2948161772	6.0e-11
3.090	1.2972591093	6.0e-11
3.100	1.2996979508	6.0e-11
3.110	1.3021326892	6.0e-11
3.120	1.3045633125	5.9e-11
3.130	1.3069898090	5.9e-11
3.140	1.3094121671	5.9e-11
3.150	1.3118303758	5.9e-11
3.160	1.3142444243	5.9e-11
3.170	1.3166543020	5.9e-11
3.180	1.3190599987	5.8e-11
3.190	1.3214615045	5.8e-11
3.200	1.3238588097	5.8e-11
3.210	1.3262519049	5.8e-11
3.220	1.3286407811	5.8e-11
3.230	1.3310254294	1.3e-10
3.240	1.3334058414	1.3e-10
3.250	1.3357820087	1.3e-10
3.260	1.3381539234	1.3e-10
3.270	1.3405215776	1.3e-10
3.280	1.3428849640	1.3e-10
3.290	1.3452440752	1.3e-10
3.300	1.3475989044	1.3e-10
3.310	1.3499494446	1.3e-10
3.320	1.3522956895	1.3e-10
3.330	1.3546376327	1.3e-10
3.340	1.3569752682	1.3e-10
3.350	1.3593085903	1.3e-10
3.360	1.3616375934	1.3e-10
3.370	1.3639622720	1.3e-10
3.380	1.3662826212	1.3e-10
3.390	1.3685986359	1.3e-10
3.400	1.3709103115	1.3e-10
3.410	1.3732176435	1.3e-10
3.420	1.3755206277	1.3e-10
3.430	1.3778192600	1.3e-10
3.440	1.3801135364	1.3e-10
3.450	1.3824034534	1.3e-10
3.460	1.3846890076	1.3e-10
3.470	1.3869701955	1.2e-10
3.480	1.3892470142	1.2e-10
3.490	1.3915194607	1.2e-10
3.500	1.3937875325	1.2e-10
3.510	1.3960512268	1.2e-10
3.520	1.3983105415	1.2e-10
3.530	1.4005654743	1.2e-10
3.540	1.4028160233	1.2e-10
3.550	1.4050621867	1.2e-10
3.560	1.4073039628	1.2e-10
3.570	1.4095413502	1.2e-10
3.580	1.4117743475	1.2e-10
3.590	1.4140029537	1.2e-10
3.600	1.4162271677	1.2e-10
3.610	1.4184469887	1.2e-10
3.620	1.4206624161	1.2e-10
3.630	1.4228734493	1.2e-10
3.640	1.4250800881	1.2e-10
3.650	1.4272823322	1.2e-10
3.660	1.4294801815	1.2e-10
3.670	1.4316736362	1.2e-10
3.680	1.4338626964	1.2e-10
3.690	1.4360473626	1.2e-10
3.700	1.4382276352	1.2e-10
3.710	1.4404035150	1.2e-10
3.720	1.4425750026	1.2e-10
3.730	1.4447420991	1.2e-10
3.740	1.4469048054	1.2e-10
3.750	1.4490631228	1.2e-10
3.760	1.4512170526	1.2e-10
3.770	1.4533665962	1.2e-10
3.780	1.4555117551	1.2e-10
3.790	1.4576525310	1.2e-10
3.800	1.4597889258	1.2e-10
3.810	1.4619209414	1.2e-10
3.820	1.4640485797	1.2e-10
3.830	1.4661718430	1.2e-10
3.840	1.4682907335	1.2e-10
3.850	1.4704052536	1.1e-10
3.860	1.4725154057	1.1e-10
3.870	1.4746211925	1.1e-10
3.880	1.4767226167	1.1e-10
3.890	1.4788196810	1.1e-10
3.900	1.4809123884	1.1e-10
3.910	1.4830007419	1.1e-10
3.920	1.4850847446	1.1e-10
3.930	1.4871643997	1.1e-10
3.940	1.4892397105	1.1e-10
3.950	1.4913106804	1.1e-10
3.960	1.4933773129	1.1e-10
3.970	1.4954396116	1.1e-10
3.980	1.4974975802	1.1e-10
3.990	1.4995512224	1.1e-10
4.000	1.5016005421	1.1e-10
4.010	1.5036455433	1.1e-10
4.020	1.5056862299	1.5e-10
4.030	1.5077226061	1.5e-10
4.040	1.5097546760	1.5e-10
4.050	1.5117824441	1.5e-10
4.060	1.5138059145	1.5e-10
4.070	1.5158250918	1.5e-10
4.080	1.5178399805	1.5e-10
4.090	1.5198505851	1.5e-10
4.100	1.5218569103	1.5e-10
4.110	1.5238589609	1.5e-10
4.120	1.5258567417	1.5e-10
4.130	1.5278502575	1.5e-10
4.140	1.5298395134	1.5e-10
4.150	1.5318245143	1.5e-10
4.160	1.5338052653	1.5e-10
4.170	1.5357817716	1.5e-10
4.180	1.5377540384	1.5e-10
4.190	1.5397220710	1.5e-10
4.200	1.5416858747	1.5e-10
4.210	1.5436454551	1.5e-10
4.220	1.5456008174	1.5e-10
4.230	1.5475519674	1.5e-10
4.240	1.5494989105	1.4e-10
4.250	1.5514416524	1.4e-10
4.260	1.5533801988	1.4e-10
4.270	1.5553145556	1.4e-10
4.280	1.5572447285	1.4e-10
4.290	1.5591707233	1.4e-10
4.300	1.5610925461	1.4e-10
4.310	1.5630102028	1.4e-10
4.320	1.5649236995	1.4e-10
4.330	1.5668330421	1.4e-10
4.340	1.5687382369	1.4e-10
4.350	1.5706392900	1.4e-10
4.360	1.5725362077	1.4e-10
4.370	1.5744289962	1.4e-10
4.380	1.5763176619	1.4e-10
4.390	1.5782022111	1.4e-10
4.400	1.5800826502	1.4e-10
4.410	1.5819589857	1.4e-10
4.420	1.5838312240	1.4e-10
4.430	1.5856993718	1.4e-10
4.440	1.5875634355	1.4e-10
4.450	1.5894234219	1.4e-10
4.460	1.5912793375	1.4e-10
4.470	1.5931311890	1.4e-10
4.480	1.5949789832	1.4e-10
4.490	1.5968227269	1.4e-10
4.500	1.5986624268	1.4e-10
4.510	1.6004980898	1.4e-10
4.520	1.6023297228	1.4e-10
4.530	1.6041573326	1.4e-10
4.540	1.6059809263	1.4e-10
4.550	1.6078005107	1.4e-10
4.560	1.6096160929	1.4e-10
4.570	1.6114276799	1.4e-10
4.580	1.6132352789	1.4e-10
4.590	1.6150388968	1.4e-10
4.600	1.6168385408	1.4e-10
4.610	1.6186342181	1.4e-10
4.620	1.6204259358	1.4e-10
4.630	1.6222137012	1.4e-10
4.640	1.6239975214	1.4e-10
4.650	1.6257774038	1.4e-10
4.660	1.6275533556	1.4e-10
4.670	1.6293253841	1.4e-10
4.680	1.6310934967	1.4e-10
4.690	1.6328577007	1.4e-10
4.700	1.6346180035	1.4e-10
4.710	1.6363744124	1.4e-10
4.720	1.6381269350	1.4e-10
4.730	1.6398755787	1.4e-10
4.740	1.6416203509	1.4e-10
4.750	1.6433612590	1.4e-10
4.760	1.6450983107	1.3e-10
4.770	1.6468315134	1.3e-10
4.780	1.6485608746	1.3e-10
4.790	1.6502864020	1.3e-10
4.800	1.6520081030	1.3e-10
4.810	1.6537259854	1.3e-10
4.820	1.6554400566	1.3e-10
4.830	1.6571503243	1.3e-10
4.840	1.6588567961	1.3e-10
4.850	1.6605594798	1.3e-10
4.860	1.6622583829	1.3e-10
4.870	1.6639535131	1.3e-10
4.880	1.6656448782	1.3e-10
4.890	1.6673324858	1.3e-10
4.900	1.6690163437	1.3e-10
4.910	1.6706964595	1.3e-10
4.920	1.6723728411	1.3e-10
4.930	1.6740454961	1.3e-10
4.940	1.6757144324	1.3e-10
4.950	1.6773796576	1.3e-10
4.960	1.6790411797	1.3e-10
4.970	1.6806990063	1.3e-10
4.980	1.6823531454	1.3e-10
4.990	1.6840036046	1.3e-10
5.000	1.6856503918	1.3e-10
5.010	1.6872935148	1.3e-10
5.020	1.6889329815	1.3e-10
5.030	1.6905687997	1.3e-10
5.040	1.6922009773	1.3e-10
5.050	1.6938295220	1.3e-10
5.060	1.6954544418	1.3e-10
5.070	1.6970757445	1.3e-10
5.080	1.6986934380	1.3e-10
5.090	1.7003075302	1.3e-10
5.100	1.7019180288	1.3e-10
5.110	1.7035249419	1.3e-10
5.120	1.7051282773	1.3e-10
5.130	1.7067280429	1.3e-10
5.140	1.7083242465	1.3e-10
5.150	1.7099168962	1.3e-10
5.160	1.7115059996	1.3e-10
5.170	1.7130915649	1.3e-10
5.180	1.7146735998	1.3e-10
5.190	1.7162521123	1.3e-10
5.200	1.7178271102	1.3e-10
5.210	1.7193986015	1.3e-10
5.220	1.7209665941	1.3e-10
5.230	1.7225310959	1.3e-10
5.240	1.7240921147	1.3e-10
5.250	1.7256496586	1.3e-10
5.260	1.7272037353	1.3e-10
5.270	1.7287543528	1.3e-10
5.280	1.7303015190	1.3e-10
5.290	1.7318452418	1.3e-10
5.300	1.7333855291	1.3e-10
5.310	1.7349223888	1.3e-10
5.320	1.7364558288	1.3e-10
5.330	1.7379858570	1.3e-10
5.340	1.7395124812	1.3e-10
5.350	1.7410357093	1.3e-10
5.360	1.7425555494	1.3e-10
5.370	1.7440720091	1.3e-10
5.380	1.7455850964	1.3e-10
5.390	1.7470948192	1.3e-10
5.400	1.7486011853	1.3e-10
5.410	1.7501042026	1.3e-10
5.420	1.7516038790	1.3e-10
5.430	1.7531002223	1.3e-10
5.440	1.7545932404	1.3e-10
5.450	1.7560829411	1.3e-10
5.460	1.7575693322	1.3e-10
5.470	1.7590524216	1.3e-10
5.480	1.7605322171	1.3e-10
5.490	1.7620087266	1.3e-10
5.500	1.7634819578	1.3e-10
5.510	1.7649519186	1.3e-10
5.520	1.7664186168	1.3e-10
5.530	1.7678820601	1.2e-10
5.540	1.7693422564	1.2e-10
5.550	1.7707992134	1.2e-10
5.560	1.7722529390	1.2e-10
5.570	1.7737034408	1.2e-10
5.580	1.7751507267	1.2e-10
5.590	1.7765948044	1.2e-10
5.600	1.7780356816	1.2e-10
5.610	1.7794733661	1.2e-10
5.620	1.7809078657	1.2e-10
5.630	1.7823391879	1.2e-10
5.640	1.7837673407	1.2e-10
5.650	1.7851923315	1.2e-10
5.660	1.7866141683	1.2e-10
5.670	1.7880328585	1.2e-10
5.680	1.7894484100	1.2e-10
5.690	1.7908608304	1.2e-10
5.700	1.7922701273	1.2e-10
5.710	1.7936763084	1.2e-10
5.720	1.7950793813	1.2e-10
5.730	1.7964793537	1.2e-10
5.740	1.7978762331	1.2e-10
5.750	1.7992700273	1.2e-10
5.760	1.8006607437	1.2e-10
5.770	1.8020483900	1.2e-10
5.780	1.8034329738	1.2e-10
5.790	1.8048145026	1.2e-10
5.800	1.8061929839	1.2e-10
5.810	1.8075684254	1.2e-10
5.820	1.8089408346	1.2e-10
5.830	1.8103102189	1.2e-10
5.840	1.8116765860	1.2e-10
5.850	1.8130399432	1.2e-10
5.860	1.8144002982	1.2e-10
5.870	1.8157576583	1.2e-10
5.880	1.8171120310	1.2e-10
5.890	1.8184634239	1.2e-10
5.900	1.8198118443	1.2e-10
5.910	1.8211572997	1.2e-10
5.920	1.8224997975	1.2e-10
5.930	1.8238393451	1.2e-10
5.940	1.8251759499	1.2e-10
5.950	1.8265096193	1.2e-10
5.960	1.8278403607	1.2e-10
5.970	1.8291681814	1.2e-10
5.980	1.8304930887	1.2e-10
5.990	1.8318150901	1.2e-10
6.000	1.8331341928	1.2e-10
6.010	1.8344504041	1.2e-10
6.020	1.8357637314	1.2e-10
6.030	1.8370741818	1.2e-10
6.040	1.8383817628	1.2e-10
6.050	1.8396864816	1.2e-10
6.060	1.8409883453	1.2e-10
6.070	1.8422873612	1.2e-10
6.080	1.8435835366	1.2e-10
6.090	1.8448768787	1.2e-10
6.100	1.8461673946	1.2e-10
6.110	1.8474550915	1.2e-10
6.120	1.8487399766	1.2e-10
6.130	1.8500220571	1.2e-10
6.140	1.8513013400	1.2e-10
6.150	1.8525778325	1.2e-10
6.160	1.8538515418	1.2e-10
6.170	1.8551224749	1.2e-10
6.180	1.8563906388	1.2e-10
6.190	1.8576560407	1.2e-10
6.200	1.8589186877	1.2e-10
6.210	1.8601785867	1.2e-10
6.220	1.8614357448	1.2e-10
6.230	1.8626901691	1.2e-10
6.240	1.8639418664	1.2e-10
6.250	1.8651908438	1.2e-10
6.260	1.8664371083	1.2e-10
6.270	1.8676806668	1.2e-10
6.280	1.8689215263	1.2e-10
6.290	1.8701596936	1.2e-10
6.300	1.8713951758	1.2e-10
6.310	1.8726279797	1.2e-10
6.320	1.8738581121	1.2e-10
6.330	1.8750855801	1.2e-10
6.340	1.8763103903	1.2e-10
6.350	1.8775325497	1.2e-10
6.360	1.8787520651	1.2e-10
6.370	1.8799689433	1.2e-10
6.380	1.8811831911	1.2e-10
6.390	1.8823948153	1.2e-10
6.400	1.8836038226	1.2e-10
6.410	1.8848102199	1.2e-10
6.420	1.8860140138	1.2e-10
6.430	1.8872152110	1.2e-10
6.440	1.8884138183	1.2e-10
6.450	1.8896098425	1.2e-10
6.460	1.8908032900	1.2e-10
6.470	1.8919941677	1.2e-10
6.480	1.8931824822	1.2e-10
6.490	1.8943682400	1.2e-10
6.500	1.8955514479	1.2e-10
6.510	1.8967321124	1.2e-10
6.520	1.8979102402	1.2e-10
6.530	1.8990858377	1.2e-10
6.540	1.9002589116	1.2e-10
6.550	1.9014294684	1.2e-10
6.560	1.9025975146	1.2e-10
6.570	1.9037630568	1.2e-10
6.580	1.9049261015	1.2e-10
6.590	1.9060866550	1.2e-10
6.600	1.9072447240	1.2e-10
6.610	1.9084003149	1.2e-10
6.620	1.9095534340	1.2e-10
6.630	1.9107040879	1.2e-10
6.640	1.9118522829	1.2e-10
6.650	1.9129980254	1.2e-10
6.660	1.9141413219	1.2e-10
6.670	1.9152821786	1.2e-10
6.680	1.9164206019	1.2e-10
6.690	1.9175565983	1.2e-10
6.700	1.9186901738	1.2e-10
6.710	1.9198213350	1.2e-10
6.720	1.9209500880	1.2e-10
6.730	1.9220764392	1.2e-10
6.740	1.9232003948	1.2e-10
6.750	1.9243219610	1.2e-10
6.760	1.9254411441	1.2e-10
6.770	1.9265579503	1.2e-10
6.780	1.9276723858	1.1e-10
6.790	1.9287844567	1.1e-10
6.800	1.9298941693	1.1e-10
6.810	1.9310015296	1.1e-10
6.820	1.9321065439	1.1e-10
6.830	1.9332092182	1.1e-10
6.840	1.9343095586	1.1e-10
6.850	1.9354075713	1.1e-10
6.860	1.9365032623	1.1e-10
6.870	1.9375966377	1.1e-10
6.880	1.9386877035	1.1e-10
6.890	1.9397764658	1.1e-10
6.900	1.9408629305	1.1e-10
6.910	1.9419471037	1.1e-10
6.920	1.9430289914	1.1e-10
6.930	1.9441085995	1.1e-10
6.940	1.9451859339	1.1e-10
6.950	1.9462610007	1.1e-10
6.960	1.9473338057	1.1e-10
6.970	1.9484043549	1.1e-10
6.980	1.9494726541	1.1e-10
6.990	1.9505387093	1.1e-10
7.000	1.9516025262	1.1e-10
7.010	1.9526641108	1.1e-10
7.020	1.9537234689	1.1e-10
7.030	1.9547806063	1.1e-10
7.040	1.9558355287	1.1e-10
7.050	1.9568882421	1.1e-10
7.060	1.9579387521	1.1e-10
7.070	1.9589870645	1.1e-10
7.080	1.9600331851	1.1e-10
7.090	1.9610771196	1.1e-10
7.100	1.9621188737	1.1e-10
7.110	1.9631584532	1.1e-10
7.120	1.9641958636	1.1e-10
7.130	1.9652311107	1.1e-10
7.140	1.9662642001	1.1e-10
7.150	1.9672951375	1.1e-10
7.160	1.9683239284	1.1e-10
7.170	1.9693505786	1.1e-10
7.180	1.9703750935	1.1e-10
7.190	1.9713974789	1.1e-10
7.200	1.9724177401	1.1e-10
7.210	1.9734358829	1.1e-10
7.220	1.9744519127	1.1e-10
7.230	1.9754658350	1.1e-10
7.240	1.9764776554	1.1e-10
7.250	1.9774873794	1.1e-10
7.260	1.9784950123	1.1e-10
7.270	1.9795005598	1.1e-10
7.280	1.9805040272	1.1e-10
7.290	1.9815054200	1.1e-10
7.300	1.9825047436	1.1e-10
7.310	1.9835020034	1.1e-10
7.320	1.9844972048	1.1e-10
7.330	1.9854903531	1.1e-10
7.340	1.9864814538	1.1e-10
7.350	1.9874705121	1.1e-10
7.360	1.9884575335	1.1e-10
7.370	1.9894425231	1.1e-10
7.380	1.9904254865	1.1e-10
7.390	1.9914064287	1.1e-10
7.400	1.9923853551	1.1e-10
7.410	1.9933622710	1.1e-10
7.420	1.9943371816	1.1e-10
7.430	1.9953100921	1.1e-10
7.440	1.9962810078	1.1e-10
7.450	1.9972499338	1.1e-10
7.460	1.9982168754	1.1e-10
7.470	1.9991818377	1.1e-10
7.480	2.0001448259	1.1e-10
7.490	2.0011058451	1.1e-10
7.500	2.0020649004	1.1e-10
7.510	2.0030219971	1.1e-10
7.520	2.0039771401	1.1e-10
7.530	2.0049303347	1.1e-10
7.540	2.0058815857	1.1e-10
7.550	2.0068308984	1.1e-10
7.560	2.0077782778	1.1e-10
7.570	2.0087237288	1.1e-10
7.580	2.0096672566	1.1e-10
7.590	2.0106088661	1.1e-10
7.600	2.0115485623	1.1e-10
7.610	2.0124863503	1.1e-10
7.620	2.0134222349	1.1e-10
7.630	2.0143562211	1.1e-10
7.640	2.0152883139	1.1e-10
7.650	2.0162185181	1.1e-10
7.660	2.0171468388	1.1e-10
7.670	2.0180732807	1.1e-10
7.680	2.0189978488	1.1e-10
7.690	2.0199205479	1.1e-10
7.700	2.0208413830	1.1e-10
7.710	2.0217603588	1.1e-10
7.720	2.0226774801	1.1e-10
7.730	2.0235927519	1.1e-10
7.740	2.0245061788	1.1e-10
7.750	2.0254177657	1.1e-10
7.760	2.0263275174	1.1e-10
7.770	2.0272354386	1.1e-10
7.780	2.0281415340	1.1e-10
7.790	2.0290458085	1.1e-10
7.800	2.0299482666	1.1e-10
7.810	2.0308489132	1.1e-10
7.820	2.0317477529	1.1e-10
7.830	2.0326447905	1.1e-10
7.840	2.0335400304	1.1e-10
7.850	2.0344334776	1.1e-10
7.860	2.0353251365	1.1e-10
7.870	2.0362150118	1.1e-10
7.880	2.0371031081	1.1e-10
7.890	2.0379894301	1.1e-10
7.900	2.0388739822	1.1e-10
7.910	2.0397567692	1.1e-10
7.920	2.0406377955	1.1e-10
7.930	2.0415170657	1.1e-10
7.940	2.0423945844	1.1e-10
7.950	2.0432703560	1.1e-10
7.960	2.0441443852	1.1e-10
7.970	2.0450166763	1.1e-10
7.980	2.0458872339	1.1e-10
7.990	2.0467560624	1.1e-10
8.000	2.0476231664	1.1e-10
8.010	2.0484885502	1.1e-10
8.020	2.0493522183	1.1e-10
8.030	2.0502141751	1.1e-10
8.040	2.0510744251	1.1e-10
8.050	2.0519329726	1.1e-10
8.060	2.0527898220	1.1e-10
8.070	2.0536449777	1.1e-10
8.080	2.0544984441	1.1e-10
8.090	2.0553502255	1.1e-10
8.100	2.0562003262	1.1e-10
8.110	2.0570487505	1.1e-10
8.120	2.0578955029	1.1e-10
8.130	2.0587405875	1.1e-10
8.140	2.0595840087	1.1e-10
8.150	2.0604257707	1.1e-10
8.160	2.0612658778	1.1e-10
8.170	2.0621043343	1.1e-10
8.180	2.0629411444	1.1e-10
8.190	2.0637763122	1.1e-10
8.200	2.0646098422	1.1e-10
8.210	2.0654417383	1.1e-10
8.220	2.0662720049	1.1e-10
8.230	2.0671006460	1.1e-10
8.240	2.0679276660	1.1e-10
8.250	2.0687530688	1.1e-10
8.260	2.0695768587	1.1e-10
8.270	2.0703990398	1.1e-10
8.280	2.0712196162	1.1e-10
8.290	2.0720385921	1.1e-10
8.300	2.0728559714	1.1e-10
8.310	2.0736717584	1.1e-10
8.320	2.0744859570	1.1e-10
8.330	2.0752985713	1.1e-10
8.340	2.0761096054	1.1e-10
8.350	2.0769190634	1.1e-10
8.360	2.0777269491	1.1e-10
8.370	2.0785332667	1.1e-10
8.380	2.0793380202	1.1e-10
