T[MeV]	f_value	f_error
0.600	300.3318547401	5.6e-10
0.610	248.4598255857	4.0e-10
0.620	207.1835047587	2.9e-10
0.630	174.0649400253	2.0e-10
0.640	147.2821672632	1.4e-10
0.650	125.4610798918	1.0e-10
0.660	107.5563005056	7.0e-11
0.670	92.7659360009	4.8e-11
0.680	80.4700022059	3.3e-11
0.690	70.1855446991	2.3e-11
0.700	61.5336469400	1.6e-11
0.710	54.2149774794	1.1e-11
0.720	47.9915234848	7.4e-12
0.730	42.6728427215	5.2e-12
0.740	38.1056416440	3.8e-12
0.750	34.1658202765	2.9e-12
0.760	30.7523597523	2.5e-12
0.770	27.7825958100	2.2e-12
0.780	25.1885416643	2.3e-12
0.790	22.9140104751	2.6e-12
0.800	20.9123508371	2.9e-12
0.810	19.1446550171	3.3e-12
0.820	17.5783338434	3.8e-12
0.830	16.1859775130	1.0e-11
0.840	14.9444405420	1.2e-09
0.850	13.8341033224	5.3e-12
0.860	12.8382735139	5.9e-12
0.870	11.9426986822	6.6e-12
0.880	11.1351678435	7.3e-12
0.890	10.4051843752	8.1e-12
0.900	9.7436964599	8.9e-12
0.910	9.1428741010	9.8e-12
0.920	8.5959239877	1.1e-11
0.930	8.0969352419	1.2e-11
0.940	7.6407504524	1.3e-11
0.950	7.2228574948	4.3e-10
0.960	6.8392984946	6.6e-11
0.970	6.4865929779	1.3e-10
0.980	6.1616728019	4.4e-10
0.990	5.8618268998	1.9e-11
1.000	5.5846542247	2.1e-11
1.010	5.3280235663	2.2e-11
1.020	5.0900391443	2.4e-11
1.030	4.8690110713	2.5e-11
1.040	4.6634299329	2.6e-11
1.050	4.4719448556	2.8e-11
1.060	4.2933445409	3.0e-11
1.070	4.1265408245	3.1e-11
1.080	3.9705543938	3.3e-11
1.090	3.8245023516	3.4e-11
1.100	3.6875873655	3.6e-11
1.110	3.5590881807	3.7e-11
1.120	3.4383513077	3.8e-11
1.130	3.3247837251	4.0e-11
1.140	3.2178464623	4.1e-11
1.150	3.1170489434	4.3e-11
1.160	3.0219439953	4.4e-11
1.170	2.9321234316	4.5e-11
1.180	2.8472141418	4.6e-11
1.190	2.7668746195	4.7e-11
1.200	2.6907918773	4.8e-11
1.210	2.6186786997	4.9e-11
1.220	2.5502711934	5.0e-11
1.230	2.4853265998	5.1e-11
1.240	2.4236213385	5.2e-11
1.250	2.3649492541	5.3e-11
1.260	2.3091200443	2.1e-10
1.270	2.2559578477	1.8e-10
1.280	2.2052999731	1.5e-10
1.290	2.1569957555	1.3e-10
1.300	2.1109055240	1.1e-10
1.310	2.0668996700	9.6e-11
1.320	2.0248578043	9.1e-11
1.330	1.9846679945	2.0e-10
1.340	1.9462260734	6.5e-11
1.350	1.9094350115	5.9e-11
1.360	1.8742043474	5.5e-11
1.370	1.8404496688	5.5e-11
1.380	1.8080921409	5.8e-11
1.390	1.7770580760	6.1e-11
1.400	1.7472785407	6.5e-11
1.410	1.7186889975	6.8e-11
1.420	1.6912289771	7.1e-11
1.430	1.6648417778	7.4e-11
1.440	1.6394741910	7.7e-11
1.450	1.6150762489	1.4e-10
1.460	1.5916009932	1.3e-10
1.470	1.5690042622	1.1e-10
1.480	1.5472444959	9.9e-11
1.490	1.5262825553	9.1e-11
1.500	1.5060815572	8.6e-11
1.510	1.4866067213	9.0e-11
1.520	1.4678252290	9.8e-11
1.530	1.4497060932	1.1e-10
1.540	1.4322200383	1.2e-10
1.550	1.4153393884	1.3e-10
1.560	1.3990379647	1.4e-10
1.570	1.3832909895	8.4e-11
1.580	1.3680749984	8.3e-11
1.590	1.3533677573	8.2e-11
1.600	1.3391481872	8.1e-11
1.610	1.3253962924	7.9e-11
1.620	1.3120930953	7.8e-11
1.630	1.2992205748	7.6e-11
1.640	1.2867616094	7.4e-11
1.650	1.2746999239	7.3e-11
1.660	1.2630200400	7.1e-11
1.670	1.2517072302	6.9e-11
1.680	1.2407474743	6.7e-11
1.690	1.2301274192	6.5e-11
1.700	1.2198343415	6.3e-11
1.710	1.2098561120	6.1e-11
1.720	1.2001811629	6.0e-11
1.730	1.1907984569	5.8e-11
1.740	1.1816974581	5.6e-11
1.750	1.1728681052	5.4e-11
1.760	1.1643007861	5.2e-11
1.770	1.1559863136	5.0e-11
1.780	1.1479159036	4.8e-11
1.790	1.1400811536	4.6e-11
1.800	1.1324740232	4.5e-11
1.810	1.1250868156	4.3e-11
1.820	1.1179121596	4.1e-11
1.830	1.1109429938	4.0e-11
1.840	1.1041725507	3.8e-11
1.850	1.0975943420	3.6e-11
1.860	1.0912021453	3.5e-11
1.870	1.0849899905	3.3e-11
1.880	1.0789521482	3.2e-11
1.890	1.0730831175	3.0e-11
1.900	1.0673776156	2.9e-11
1.910	1.0618305671	2.8e-11
1.920	1.0564370944	2.7e-11
1.930	1.0511925086	2.5e-11
1.940	1.0460923005	2.4e-11
1.950	1.0411321325	2.3e-11
1.960	1.0363078309	2.2e-11
1.970	1.0316153780	2.1e-11
1.980	1.0270509059	2.0e-11
1.990	1.0226106890	1.9e-11
2.000	1.0182911381	1.8e-11
2.010	1.0140887945	1.7e-11
2.020	1.0100003241	1.6e-11
2.030	1.0060225121	1.5e-11
2.040	1.0021522579	1.5e-11
2.050	0.9983865700	1.4e-11
2.060	0.9947225617	1.3e-11
2.070	0.9911574467	1.3e-11
2.080	0.9876885345	1.2e-11
2.090	0.9843132267	1.2e-11
2.100	0.9810290134	1.1e-11
2.110	0.9778334692	1.1e-11
2.120	0.9747242500	1.1e-11
2.130	0.9716990897	1.0e-11
2.140	0.9687557969	1.0e-11
2.150	0.9658922523	1.0e-11
2.160	0.9631064052	9.8e-12
2.170	0.9603962718	9.5e-11
2.180	0.9577599314	9.2e-11
2.190	0.9551955251	9.0e-11
2.200	0.9527012525	8.7e-11
2.210	0.9502753700	8.4e-11
2.220	0.9479161886	8.1e-11
2.230	0.9456220716	7.9e-11
2.240	0.9433914328	7.6e-11
2.250	0.9412227345	7.4e-11
2.260	0.9391144860	7.1e-11
2.270	0.9370652416	6.9e-11
2.280	0.9350735988	6.7e-11
2.290	0.9331381973	6.4e-11
2.300	0.9312577170	6.2e-11
2.310	0.9294308766	6.0e-11
2.320	0.9276564323	5.8e-11
2.330	0.9259331767	5.6e-11
2.340	0.9242599371	5.4e-11
2.350	0.9226355745	5.2e-11
2.360	0.9210589825	5.0e-11
2.370	0.9195290860	4.8e-11
2.380	0.9180448403	4.7e-11
2.390	0.9166052299	4.5e-11
2.400	0.9152092676	4.3e-11
2.410	0.9138559936	4.2e-11
2.420	0.9125444744	4.0e-11
2.430	0.9112738020	3.9e-11
2.440	0.9100430933	3.7e-11
2.450	0.9088514889	3.6e-11
2.460	0.9076981525	3.4e-11
2.470	0.9065822701	3.3e-11
2.480	0.9055030494	3.2e-11
2.490	0.9044597190	3.0e-11
2.500	0.9034515278	2.9e-11
2.510	0.9024777441	2.8e-11
2.520	0.9015376554	2.7e-11
2.530	0.9006305675	2.6e-11
2.540	0.8997558039	2.5e-11
2.550	0.8989127056	2.4e-11
2.560	0.8981006302	2.3e-11
2.570	0.8973189513	2.2e-11
2.580	0.8965670586	2.1e-11
2.590	0.8958443567	2.0e-11
2.600	0.8951502652	1.9e-11
2.610	0.8944842178	1.8e-11
2.620	0.8938456623	1.8e-11
2.630	0.8932340598	1.7e-11
2.640	0.8926488847	1.6e-11
2.650	0.8920896239	1.6e-11
2.660	0.8915557767	1.5e-11
2.670	0.8910468544	1.4e-11
2.680	0.8905623798	1.4e-11
2.690	0.8901018872	1.3e-11
2.700	0.8896649215	1.3e-11
2.710	0.8892510387	1.2e-11
2.720	0.8888598047	1.1e-11
2.730	0.8884907957	1.1e-11
2.740	0.8881435977	1.1e-11
2.750	0.8878178060	1.0e-11
2.760	0.8875130253	9.7e-12
2.770	0.8872288693	9.4e-12
2.780	0.8869649601	9.0e-12
2.790	0.8867209287	8.7e-12
2.800	0.8864964141	8.4e-12
2.810	0.8862910635	8.1e-12
2.820	0.8861045317	7.8e-12
2.830	0.8859364812	7.6e-12
2.840	0.8857865821	7.4e-12
2.850	0.8856545114	7.2e-12
2.860	0.8855399532	7.0e-12
2.870	0.8854425985	6.9e-12
2.880	0.8853621450	6.9e-12
2.890	0.8852982966	7.0e-12
2.900	0.8852507638	7.0e-12
2.910	0.8852192632	7.1e-12
2.920	0.8852035171	7.2e-12
2.930	0.8852032541	7.3e-12
2.940	0.8852182080	7.4e-12
2.950	0.8852481185	7.5e-12
2.960	0.8852927305	7.6e-12
2.970	0.8853517942	7.7e-12
2.980	0.8854250650	7.9e-12
2.990	0.8855123032	8.0e-12
3.000	0.8856132741	8.1e-12
3.010	0.8857277477	8.3e-12
3.020	0.8858554985	8.4e-12
3.030	0.8859963057	8.5e-12
3.040	0.8861499530	8.7e-12
3.050	0.8863162281	8.8e-12
3.060	0.8864949232	8.9e-12
3.070	0.8866858344	9.1e-12
3.080	0.8868887620	9.2e-12
3.090	0.8871035099	9.4e-12
3.100	0.8873298863	9.5e-12
3.110	0.8875677026	9.6e-12
3.120	0.8878167743	9.8e-12
3.130	0.8880769200	9.9e-12
3.140	0.8883479622	1.0e-11
3.150	0.8886297265	1.0e-11
3.160	0.8889220419	1.0e-11
3.170	0.8892247407	1.0e-11
3.180	0.8895376584	1.1e-11
3.190	0.8898606333	1.1e-11
3.200	0.8901935070	1.1e-11
3.210	0.8905361239	1.1e-11
3.220	0.8908883315	1.1e-11
3.230	0.8912499799	1.1e-11
3.240	0.8916209220	1.1e-11
3.250	0.8920010134	1.1e-11
3.260	0.8923901123	1.1e-11
3.270	0.8927880797	1.2e-11
3.280	0.8931947788	1.2e-11
3.290	0.8936100756	1.2e-11
3.300	0.8940338380	1.2e-11
3.310	0.8944659369	1.2e-11
3.320	0.8949062450	1.2e-11
3.330	0.8953546376	1.2e-11
3.340	0.8958109919	1.2e-11
3.350	0.8962751874	1.2e-11
3.360	0.8967471059	1.2e-11
3.370	0.8972266310	1.2e-11
3.380	0.8977136484	1.2e-11
3.390	0.8982080459	1.3e-11
3.400	0.8987097131	1.3e-11
3.410	0.8992185415	1.3e-11
3.420	0.8997344246	1.3e-11
3.430	0.9002572576	1.3e-11
3.440	0.9007869376	1.3e-11
3.450	0.9013233633	1.3e-11
3.460	0.9018664351	1.3e-11
3.470	0.9024160554	1.3e-11
3.480	0.9029721278	1.3e-11
3.490	0.9035345578	1.3e-11
3.500	0.9041032524	1.3e-11
3.510	0.9046781201	1.3e-11
3.520	0.9052590709	1.3e-11
3.530	0.9058460165	1.3e-11
3.540	0.9064388699	1.3e-11
3.550	0.9070375453	1.3e-11
3.560	0.9076419587	1.3e-11
3.570	0.9082520273	1.3e-11
3.580	0.9088676695	1.3e-11
3.590	0.9094888052	1.3e-11
3.600	0.9101153556	1.3e-11
3.610	0.9107472430	1.3e-11
3.620	0.9113843912	1.4e-11
3.630	0.9120267249	1.4e-11
3.640	0.9126741703	1.4e-11
3.650	0.9133266545	1.4e-11
3.660	0.9139841059	1.4e-11
3.670	0.9146464540	1.4e-11
3.680	0.9153136295	1.4e-11
3.690	0.9159855641	1.4e-11
3.700	0.9166621904	1.4e-11
3.710	0.9173434423	1.4e-11
3.720	0.9180292546	1.4e-11
3.730	0.9187195631	1.4e-11
3.740	0.9194143048	1.4e-11
3.750	0.9201134172	1.4e-11
3.760	0.9208168392	1.4e-11
3.770	0.9215245105	1.4e-11
3.780	0.9222363716	1.4e-11
3.790	0.9229523640	1.4e-11
3.800	0.9236724301	1.4e-11
3.810	0.9243965131	1.4e-11
3.820	0.9251245571	1.4e-11
3.830	0.9258565070	1.4e-11
3.840	0.9265923085	1.4e-11
3.850	0.9273319082	1.4e-11
3.860	0.9280752534	1.4e-11
3.870	0.9288222922	1.4e-11
3.880	0.9295729735	1.3e-11
3.890	0.9303272470	1.3e-11
3.900	0.9310850629	1.3e-11
3.910	0.9318463724	1.3e-11
3.920	0.9326111272	1.3e-11
3.930	0.9333792798	1.3e-11
3.940	0.9341507835	1.3e-11
3.950	0.9349255920	1.3e-11
3.960	0.9357036600	1.3e-11
3.970	0.9364849424	1.3e-11
3.980	0.9372693952	1.3e-11
3.990	0.9380569748	1.3e-11
4.000	0.9388476382	1.3e-11
4.010	0.9396413431	1.3e-11
4.020	0.9404380477	1.3e-11
4.030	0.9412377109	1.3e-11
4.040	0.9420402921	1.3e-11
4.050	0.9428457512	1.3e-11
4.060	0.9436540489	1.3e-11
4.070	0.9444651461	1.3e-11
4.080	0.9452790046	1.3e-11
4.090	0.9460955864	1.3e-11
4.100	0.9469148544	1.3e-11
4.110	0.9477367715	1.3e-11
4.120	0.9485613017	1.3e-11
4.130	0.9493884089	1.3e-11
4.140	0.9502180580	1.3e-11
4.150	0.9510502140	1.3e-11
4.160	0.9518848426	1.3e-11
4.170	0.9527219099	1.3e-11
4.180	0.9535613825	1.3e-11
4.190	0.9544032272	1.3e-11
4.200	0.9552474116	1.3e-11
4.210	0.9560939036	1.3e-11
4.220	0.9569426714	1.3e-11
4.230	0.9577936837	1.2e-11
4.240	0.9586469098	1.2e-11
4.250	0.9595023190	1.2e-11
4.260	0.9603598815	1.2e-11
4.270	0.9612195674	1.2e-11
4.280	0.9620813476	1.2e-11
4.290	0.9629451930	1.2e-11
4.300	0.9638110753	1.2e-11
4.310	0.9646789663	1.2e-11
4.320	0.9655488381	1.2e-11
4.330	0.9664206634	1.2e-11
4.340	0.9672944151	1.2e-11
4.350	0.9681700664	1.2e-11
4.360	0.9690475910	1.2e-11
4.370	0.9699269627	1.2e-11
4.380	0.9708081560	1.2e-11
4.390	0.9716911454	1.2e-11
4.400	0.9725759058	1.2e-11
4.410	0.9734624125	1.2e-11
4.420	0.9743506411	1.2e-11
4.430	0.9752405673	1.2e-11
4.440	0.9761321675	1.2e-11
4.450	0.9770254179	1.2e-11
4.460	0.9779202955	1.2e-11
4.470	0.9788167772	1.2e-11
4.480	0.9797148404	1.1e-11
4.490	0.9806144627	1.1e-11
4.500	0.9815156219	1.1e-11
4.510	0.9824182963	1.1e-11
4.520	0.9833224642	1.1e-11
4.530	0.9842281044	1.1e-11
4.540	0.9851351957	1.1e-11
4.550	0.9860437175	1.1e-11
4.560	0.9869536491	1.1e-11
4.570	0.9878649703	1.1e-11
4.580	0.9887776610	1.1e-11
4.590	0.9896917014	1.1e-11
4.600	0.9906070719	1.1e-11
4.610	0.9915237532	1.1e-11
4.620	0.9924417262	1.1e-11
4.630	0.9933609720	1.1e-11
4.640	0.9942814720	1.1e-11
4.650	0.9952032077	1.1e-11
4.660	0.9961261609	1.1e-11
4.670	0.9970503136	1.1e-11
4.680	0.9979756481	1.1e-11
4.690	0.9989021466	1.1e-11
4.700	0.9998297919	1.1e-11
4.710	1.0007585669	1.0e-10
4.720	1.0016884544	9.9e-11
4.730	1.0026194377	9.8e-11
4.740	1.0035515003	9.7e-11
4.750	1.0044846258	9.7e-11
4.760	1.0054187979	9.6e-11
4.770	1.0063540007	9.5e-11
4.780	1.0072902183	9.5e-11
4.790	1.0082274350	9.4e-11
4.800	1.0091656355	9.3e-11
4.810	1.0101048043	9.3e-11
4.820	1.0110449263	9.2e-11
4.830	1.0119859867	9.2e-11
4.840	1.0129279706	9.1e-11
4.850	1.0138708635	9.0e-11
4.860	1.0148146507	9.0e-11
4.870	1.0157593182	8.9e-11
4.880	1.0167048516	8.9e-11
4.890	1.0176512371	8.8e-11
4.900	1.0185984609	8.7e-11
4.910	1.0195465092	8.7e-11
4.920	1.0204953685	8.6e-11
4.930	1.0214450256	8.6e-11
4.940	1.0223954671	8.5e-11
4.950	1.0233466800	8.5e-11
4.960	1.0242986513	8.4e-11
4.970	1.0252513683	8.3e-11
4.980	1.0262048184	8.3e-11
4.990	1.0271589889	8.2e-11
5.000	1.0281138676	8.2e-11
5.010	1.0290694421	8.1e-11
5.020	1.0300257004	8.1e-11
5.030	1.0309826306	8.0e-11
5.040	1.0319402206	8.0e-11
5.050	1.0328984589	7.9e-11
5.060	1.0338573337	7.9e-11
5.070	1.0348168337	7.8e-11
5.080	1.0357769475	7.8e-11
5.090	1.0367376639	7.7e-11
5.100	1.0376989717	7.7e-11
5.110	1.0386608599	7.6e-11
5.120	1.0396233176	7.6e-11
5.130	1.0405863342	7.5e-11
5.140	1.0415498988	7.5e-11
5.150	1.0425140011	7.4e-11
5.160	1.0434786305	7.4e-11
5.170	1.0444437767	7.3e-11
5.180	1.0454094296	7.3e-11
5.190	1.0463755789	7.3e-11
5.200	1.0473422148	7.2e-11
5.210	1.0483093272	7.2e-11
5.220	1.0492769064	7.1e-11
5.230	1.0502449427	7.1e-11
5.240	1.0512134265	7.0e-11
5.250	1.0521823483	7.0e-11
5.260	1.0531516986	6.9e-11
5.270	1.0541214682	6.9e-11
5.280	1.0550916478	6.9e-11
5.290	1.0560622283	6.8e-11
5.300	1.0570332008	6.8e-11
5.310	1.0580045562	6.7e-11
5.320	1.0589762856	6.7e-11
5.330	1.0599483804	6.7e-11
5.340	1.0609208319	6.6e-11
5.350	1.0618936314	6.6e-11
5.360	1.0628667705	6.5e-11
5.370	1.0638402408	6.5e-11
5.380	1.0648140339	6.5e-11
5.390	1.0657881415	6.4e-11
5.400	1.0667625555	6.4e-11
5.410	1.0677372678	6.3e-11
5.420	1.0687122705	6.3e-11
5.430	1.0696875554	6.3e-11
5.440	1.0706631149	6.2e-11
5.450	1.0716389412	6.2e-11
5.460	1.0726150264	6.2e-11
5.470	1.0735913630	6.1e-11
5.480	1.0745679435	6.1e-11
5.490	1.0755447604	6.1e-11
5.500	1.0765218062	6.0e-11
5.510	1.0774990737	6.0e-11
5.520	1.0784765555	6.0e-11
5.530	1.0794542444	5.9e-11
5.540	1.0804321334	5.9e-11
5.550	1.0814102154	5.9e-11
5.560	1.0823884834	5.8e-11
5.570	1.0833669304	5.8e-11
5.580	1.0843455496	5.8e-11
5.590	1.0853243342	5.7e-11
5.600	1.0863032775	5.7e-11
5.610	1.0872823728	5.7e-11
5.620	1.0882616135	5.6e-11
5.630	1.0892409931	5.6e-11
5.640	1.0902205050	5.6e-11
5.650	1.0912001429	5.5e-11
5.660	1.0921799004	5.5e-11
5.670	1.0931597712	5.5e-11
5.680	1.0941397491	5.4e-11
5.690	1.0951198278	5.4e-11
5.700	1.0961000013	5.4e-11
5.710	1.0970802634	5.3e-11
5.720	1.0980606082	5.3e-11
5.730	1.0990410297	5.3e-11
5.740	1.1000215220	5.3e-11
5.750	1.1010020793	5.2e-11
5.760	1.1019826956	5.2e-11
5.770	1.1029633654	5.2e-11
5.780	1.1039440829	5.1e-11
5.790	1.1049248425	5.1e-11
5.800	1.1059056386	5.1e-11
5.810	1.1068864656	5.1e-11
5.820	1.1078673181	5.0e-11
5.830	1.1088481905	5.0e-11
5.840	1.1098290777	5.0e-11
5.850	1.1108099741	5.0e-11
5.860	1.1117908745	4.9e-11
5.870	1.1127717736	4.9e-11
5.880	1.1137526663	4.9e-11
5.890	1.1147335474	4.8e-11
5.900	1.1157144118	4.8e-11
5.910	1.1166952544	4.8e-11
5.920	1.1176760703	4.8e-11
5.930	1.1186568543	4.7e-11
5.940	1.1196376017	4.7e-11
5.950	1.1206183076	4.7e-11
5.960	1.1215989670	4.7e-11
5.970	1.1225795752	4.6e-11
5.980	1.1235601274	4.6e-11
5.990	1.1245406190	4.6e-11
6.000	1.1255210452	4.6e-11
