T[MeV]	f_value	f_error
1.000	0.8638359994	5.3e-11
1.010	0.8612082262	5.1e-11
1.020	0.8587731143	4.9e-11
1.030	0.8565211696	4.8e-11
1.040	0.8544434776	4.6e-11
1.050	0.8525316608	4.4e-11
1.060	0.8507778401	4.3e-11
1.070	0.8491745988	4.1e-11
1.080	0.8477149502	4.0e-11
1.090	0.8463923072	3.9e-11
1.100	0.8452004553	3.8e-11
1.110	0.8441335271	3.6e-11
1.120	0.8431859786	3.5e-11
1.130	0.8423525682	3.4e-11
1.140	0.8416283364	3.3e-11
1.150	0.8410085881	3.2e-11
1.160	0.8404888750	3.1e-11
1.170	0.8400649802	3.1e-11
1.180	0.8397329041	3.0e-11
1.190	0.8394888501	2.9e-11
1.200	0.8393292130	2.8e-11
1.210	0.8392505667	2.7e-11
1.220	0.8392496541	2.7e-11
1.230	0.8393233766	2.6e-11
1.240	0.8394687848	2.5e-11
1.250	0.8396830702	2.5e-11
1.260	0.8399635569	2.4e-11
1.270	0.8403076938	2.4e-11
1.280	0.8407130480	2.3e-11
1.290	0.8411772980	2.2e-11
1.300	0.8416982275	2.2e-11
1.310	0.8422737198	2.1e-11
1.320	0.8429017522	2.1e-11
1.330	0.8435803912	2.1e-11
1.340	0.8443077876	2.0e-11
1.350	0.8450821720	2.0e-11
1.360	0.8459018511	1.9e-11
1.370	0.8467652030	1.9e-11
1.380	0.8476706743	8.4e-11
1.390	0.8486167761	8.2e-11
1.400	0.8496020810	8.1e-11
1.410	0.8506252200	7.9e-11
1.420	0.8516848796	7.8e-11
1.430	0.8527797992	7.6e-11
1.440	0.8539087683	7.5e-11
1.450	0.8550706242	7.3e-11
1.460	0.8562642498	7.2e-11
1.470	0.8574885714	7.1e-11
1.480	0.8587425565	6.9e-11
1.490	0.8600252123	6.8e-11
1.500	0.8613355832	6.7e-11
1.510	0.8626727499	6.6e-11
1.520	0.8640358269	6.5e-11
1.530	0.8654239618	6.3e-11
1.540	0.8668363333	6.2e-11
1.550	0.8682721499	6.1e-11
1.560	0.8697306486	6.0e-11
1.570	0.8712110938	5.9e-11
1.580	0.8727127760	5.8e-11
1.590	0.8742350106	5.8e-11
1.600	0.8757771371	5.7e-11
1.610	0.8773385175	5.6e-11
1.620	0.8789185363	5.5e-11
1.630	0.8805165986	5.4e-11
1.640	0.8821321297	5.3e-11
1.650	0.8837645744	5.3e-11
1.660	0.8854133959	5.2e-11
1.670	0.8870780751	5.1e-11
1.680	0.8887581102	5.0e-11
1.690	0.8904530155	5.0e-11
1.700	0.8921623211	4.9e-11
1.710	0.8938855724	4.8e-11
1.720	0.8956223290	4.8e-11
1.730	0.8973721647	4.7e-11
1.740	0.8991346665	4.6e-11
1.750	0.9009094344	4.6e-11
1.760	0.9026960808	4.5e-11
1.770	0.9044942300	4.5e-11
1.780	0.9063035177	4.4e-11
1.790	0.9081235907	4.3e-11
1.800	0.9099541065	9.0e-11
1.810	0.9117947328	8.9e-11
1.820	0.9136451471	8.8e-11
1.830	0.9155050364	8.7e-11
1.840	0.9173740970	8.6e-11
1.850	0.9192520339	8.5e-11
1.860	0.9211385606	8.4e-11
1.870	0.9230333989	8.3e-11
1.880	0.9249362785	8.2e-11
1.890	0.9268469366	8.1e-11
1.900	0.9287651179	8.0e-11
1.910	0.9306905743	7.9e-11
1.920	0.9326230644	7.8e-11
1.930	0.9345623536	7.7e-11
1.940	0.9365082135	7.6e-11
1.950	0.9384604220	7.6e-11
1.960	0.9404187632	7.5e-11
1.970	0.9423830266	7.4e-11
1.980	0.9443530075	7.3e-11
1.990	0.9463285066	7.3e-11
2.000	0.9483093299	7.2e-11
2.010	0.9502952884	9.4e-11
2.020	0.9522861978	9.3e-11
2.030	0.9542818788	9.2e-11
2.040	0.9562821566	9.1e-11
2.050	0.9582868609	9.0e-11
2.060	0.9602958256	8.9e-11
2.070	0.9623088889	8.9e-11
2.080	0.9643258927	8.8e-11
2.090	0.9663466833	8.7e-11
2.100	0.9683711105	8.6e-11
2.110	0.9703990278	8.5e-11
2.120	0.9724302922	8.5e-11
2.130	0.9744647644	8.4e-11
2.140	0.9765023082	8.3e-11
2.150	0.9785427907	8.2e-11
2.160	0.9805860822	8.2e-11
2.170	0.9826320562	8.1e-11
2.180	0.9846805888	8.0e-11
2.190	0.9867315594	8.0e-11
2.200	0.9887848499	7.9e-11
2.210	0.9908403451	7.8e-11
2.220	0.9928979323	7.8e-11
2.230	0.9949575015	7.7e-11
2.240	0.9970189452	7.6e-11
2.250	0.9990821581	7.6e-11
2.260	1.0011470375	7.5e-11
2.270	1.0032134829	7.5e-11
2.280	1.0052813961	7.4e-11
2.290	1.0073506809	7.3e-11
2.300	1.0094212434	7.3e-11
2.310	1.0114929916	7.2e-11
2.320	1.0135658356	7.2e-11
2.330	1.0156396875	7.1e-11
2.340	1.0177144611	7.1e-11
2.350	1.0197900721	7.0e-11
2.360	1.0218664381	7.0e-11
2.370	1.0239434784	6.9e-11
2.380	1.0260211141	6.9e-11
2.390	1.0280992676	6.8e-11
2.400	1.0301778633	6.8e-11
2.410	1.0322568271	6.7e-11
2.420	1.0343360863	6.7e-11
2.430	1.0364155698	6.6e-11
2.440	1.0384952079	6.6e-11
2.450	1.0405749324	6.5e-11
2.460	1.0426546764	6.5e-11
2.470	1.0447343745	6.4e-11
2.480	1.0468139625	6.4e-11
2.490	1.0488933775	6.4e-11
2.500	1.0509725579	6.3e-11
2.510	1.0530514433	6.3e-11
2.520	1.0551299746	6.2e-11
2.530	1.0572080936	6.2e-11
2.540	1.0592857436	6.2e-11
2.550	1.0613628689	6.1e-11
2.560	1.0634394147	6.1e-11
2.570	1.0655153275	6.0e-11
2.580	1.0675905547	6.0e-11
2.590	1.0696650449	6.0e-11
2.600	1.0717387476	5.9e-11
2.610	1.0738116132	5.9e-11
2.620	1.0758835931	5.9e-11
2.630	1.0779546397	5.8e-11
2.640	1.0800247062	5.8e-11
2.650	1.0820937469	5.8e-11
2.660	1.0841617167	5.7e-11
2.670	1.0862285716	5.7e-11
2.680	1.0882942683	5.7e-11
2.690	1.0903587644	5.6e-11
2.700	1.0924220182	5.6e-11
2.710	1.0944839889	5.6e-11
2.720	1.0965446363	5.5e-11
2.730	1.0986039212	5.5e-11
2.740	1.1006618050	5.5e-11
2.750	1.1027182499	5.5e-11
2.760	1.1047732186	5.4e-11
2.770	1.1068266747	5.4e-11
2.780	1.1088785824	5.4e-11
2.790	1.1109289067	5.3e-11
2.800	1.1129776131	5.3e-11
2.810	1.1150246678	5.3e-11
2.820	1.1170700376	5.3e-11
2.830	1.1191136899	5.2e-11
2.840	1.1211555929	5.2e-11
2.850	1.1231957151	5.2e-11
2.860	1.1252340258	5.2e-11
2.870	1.1272704948	5.1e-11
2.880	1.1293050924	5.1e-11
2.890	1.1313377896	5.1e-11
2.900	1.1333685579	5.1e-11
2.910	1.1353973691	5.0e-11
2.920	1.1374241959	5.0e-11
2.930	1.1394490112	5.0e-11
2.940	1.1414717886	5.0e-11
2.950	1.1434925021	4.9e-11
2.960	1.1455111263	4.9e-11
2.970	1.1475276360	4.9e-11
2.980	1.1495420067	4.9e-11
2.990	1.1515542144	4.9e-11
3.000	1.1535642354	4.8e-11
3.010	1.1555720466	4.8e-11
3.020	1.1575776251	4.8e-11
3.030	1.1595809487	4.8e-11
3.040	1.1615819954	4.7e-11
3.050	1.1635807438	4.7e-11
3.060	1.1655771728	4.7e-11
3.070	1.1675712617	4.7e-11
3.080	1.1695629902	4.7e-11
3.090	1.1715523384	4.6e-11
3.100	1.1735392869	4.6e-11
3.110	1.1755238164	4.6e-11
3.120	1.1775059082	4.6e-11
3.130	1.1794855438	4.6e-11
3.140	1.1814627054	4.6e-11
3.150	1.1834373750	4.5e-11
3.160	1.1854095355	4.5e-11
3.170	1.1873791697	4.5e-11
3.180	1.1893462610	4.5e-11
3.190	1.1913107931	4.5e-11
3.200	1.1932727499	4.4e-11
3.210	1.1952321157	4.4e-11
3.220	1.1971888751	4.4e-11
3.230	1.1991430130	4.4e-11
3.240	1.2010945148	4.4e-11
3.250	1.2030433658	4.4e-11
3.260	1.2049895519	4.3e-11
3.270	1.2069330592	4.3e-11
3.280	1.2088738741	4.3e-11
3.290	1.2108119833	4.3e-11
3.300	1.2127473738	4.3e-11
3.310	1.2146800327	4.3e-11
3.320	1.2166099476	4.2e-11
3.330	1.2185371062	4.2e-11
3.340	1.2204614965	4.2e-11
3.350	1.2223831069	4.2e-11
3.360	1.2243019258	4.2e-11
3.370	1.2262179421	4.2e-11
3.380	1.2281311447	4.2e-11
3.390	1.2300415230	4.1e-11
3.400	1.2319490665	4.1e-11
3.410	1.2338537649	4.1e-11
3.420	1.2357556081	4.1e-11
3.430	1.2376545865	4.1e-11
3.440	1.2395506904	4.1e-11
3.450	1.2414439105	4.1e-11
3.460	1.2433342377	4.1e-11
3.470	1.2452216630	4.0e-11
3.480	1.2471061778	4.0e-11
3.490	1.2489877736	4.0e-11
3.500	1.2508664420	4.0e-11
3.510	1.2527421751	4.0e-11
3.520	1.2546149650	4.0e-11
3.530	1.2564848039	4.0e-11
3.540	1.2583516844	3.9e-11
3.550	1.2602155992	3.9e-11
3.560	1.2620765412	3.9e-11
3.570	1.2639345035	3.9e-11
3.580	1.2657894794	3.9e-11
3.590	1.2676414622	3.9e-11
3.600	1.2694904458	3.9e-11
3.610	1.2713364238	3.9e-11
3.620	1.2731793902	3.9e-11
3.630	1.2750193393	3.8e-11
3.640	1.2768562652	3.8e-11
3.650	1.2786901627	3.8e-11
3.660	1.2805210262	3.8e-11
3.670	1.2823488506	3.8e-11
3.680	1.2841736309	3.8e-11
3.690	1.2859953622	3.8e-11
3.700	1.2878140399	3.8e-11
3.710	1.2896296593	3.8e-11
3.720	1.2914422161	3.7e-11
3.730	1.2932517061	3.7e-11
3.740	1.2950581251	3.7e-11
3.750	1.2968614691	3.7e-11
3.760	1.2986617344	3.7e-11
3.770	1.3004589174	3.7e-11
3.780	1.3022530143	3.7e-11
3.790	1.3040440220	3.7e-11
3.800	1.3058319371	3.7e-11
3.810	1.3076167564	3.7e-11
3.820	1.3093984771	3.6e-11
3.830	1.3111770962	3.6e-11
3.840	1.3129526111	3.6e-11
3.850	1.3147250190	3.6e-11
3.860	1.3164943176	3.6e-11
3.870	1.3182605044	3.6e-11
3.880	1.3200235773	3.6e-11
3.890	1.3217835341	3.6e-11
3.900	1.3235403729	3.6e-11
3.910	1.3252940917	3.6e-11
3.920	1.3270446888	3.6e-11
3.930	1.3287921625	3.5e-11
3.940	1.3305365113	3.5e-11
3.950	1.3322777339	3.5e-11
3.960	1.3340158287	3.5e-11
3.970	1.3357507947	3.5e-11
3.980	1.3374826308	3.5e-11
3.990	1.3392113359	3.5e-11
4.000	1.3409369092	3.5e-11
4.010	1.3426593498	3.5e-11
4.020	1.3443786570	3.5e-11
4.030	1.3460948304	3.5e-11
4.040	1.3478078693	3.5e-11
4.050	1.3495177733	3.4e-11
4.060	1.3512245423	3.4e-11
4.070	1.3529281758	3.4e-11
4.080	1.3546286739	3.4e-11
4.090	1.3563260366	3.4e-11
4.100	1.3580202637	1.4e-10
4.110	1.3597113556	1.4e-10
4.120	1.3613993124	1.3e-10
4.130	1.3630841345	1.3e-10
4.140	1.3647658223	1.3e-10
4.150	1.3664443763	1.3e-10
4.160	1.3681197970	1.3e-10
4.170	1.3697920851	1.3e-10
4.180	1.3714612413	1.3e-10
4.190	1.3731272665	1.3e-10
4.200	1.3747901616	1.3e-10
4.210	1.3764499274	1.3e-10
4.220	1.3781065652	1.3e-10
4.230	1.3797600759	1.3e-10
4.240	1.3814104608	1.3e-10
4.250	1.3830577212	1.3e-10
4.260	1.3847018584	1.3e-10
4.270	1.3863428738	1.3e-10
4.280	1.3879807689	1.3e-10
4.290	1.3896155452	1.3e-10
4.300	1.3912472043	1.3e-10
4.310	1.3928757481	1.3e-10
4.320	1.3945011781	1.3e-10
4.330	1.3961234962	1.3e-10
4.340	1.3977427043	1.3e-10
4.350	1.3993588043	1.3e-10
4.360	1.4009717982	1.3e-10
4.370	1.4025816882	1.3e-10
4.380	1.4041884763	1.3e-10
4.390	1.4057921646	1.3e-10
4.400	1.4073927556	1.3e-10
4.410	1.4089902514	1.3e-10
4.420	1.4105846544	1.3e-10
4.430	1.4121759670	1.3e-10
4.440	1.4137641917	1.3e-10
4.450	1.4153493310	1.3e-10
4.460	1.4169313876	1.3e-10
4.470	1.4185103639	1.3e-10
4.480	1.4200862628	1.3e-10
4.490	1.4216590869	1.3e-10
4.500	1.4232288391	1.2e-10
4.510	1.4247955221	1.2e-10
4.520	1.4263591388	1.2e-10
4.530	1.4279196923	1.2e-10
4.540	1.4294771854	1.2e-10
4.550	1.4310316211	1.2e-10
4.560	1.4325830026	1.2e-10
4.570	1.4341313330	1.2e-10
4.580	1.4356766154	1.2e-10
4.590	1.4372188531	1.2e-10
4.600	1.4387580492	1.2e-10
4.610	1.4402942071	1.2e-10
4.620	1.4418273301	1.2e-10
4.630	1.4433574216	1.2e-10
4.640	1.4448844850	1.2e-10
4.650	1.4464085237	1.2e-10
4.660	1.4479295413	1.2e-10
4.670	1.4494475413	1.2e-10
4.680	1.4509625272	1.2e-10
4.690	1.4524745026	1.2e-10
4.700	1.4539834713	1.2e-10
4.710	1.4554894368	1.2e-10
4.720	1.4569924030	1.2e-10
4.730	1.4584923734	1.2e-10
4.740	1.4599893521	1.2e-10
4.750	1.4614833426	1.2e-10
4.760	1.4629743490	1.2e-10
4.770	1.4644623751	1.2e-10
4.780	1.4659474248	1.2e-10
4.790	1.4674295020	1.2e-10
4.800	1.4689086108	1.2e-10
4.810	1.4703847552	1.2e-10
4.820	1.4718579391	1.2e-10
4.830	1.4733281667	1.2e-10
4.840	1.4747954421	1.2e-10
4.850	1.4762597694	1.2e-10
4.860	1.4777211528	1.2e-10
4.870	1.4791795964	1.2e-10
4.880	1.4806351044	1.2e-10
4.890	1.4820876811	1.2e-10
4.900	1.4835373308	1.2e-10
4.910	1.4849840577	1.2e-10
4.920	1.4864278662	1.2e-10
4.930	1.4878687606	1.2e-10
4.940	1.4893067452	1.2e-10
4.950	1.4907418245	1.2e-10
4.960	1.4921740029	1.2e-10
4.970	1.4936032847	1.2e-10
4.980	1.4950296745	1.2e-10
4.990	1.4964531767	1.2e-10
5.000	1.4978737958	1.2e-10
5.010	1.4992915364	1.1e-10
5.020	1.5007064030	1.1e-10
5.030	1.5021184001	1.1e-10
5.040	1.5035275323	1.1e-10
5.050	1.5049338043	1.1e-10
5.060	1.5063372206	1.1e-10
5.070	1.5077377859	1.1e-10
5.080	1.5091355049	1.1e-10
5.090	1.5105303822	1.1e-10
5.100	1.5119224225	1.1e-10
5.110	1.5133116305	1.1e-10
5.120	1.5146980110	1.1e-10
5.130	1.5160815686	1.1e-10
5.140	1.5174623082	1.1e-10
5.150	1.5188402346	1.1e-10
5.160	1.5202153524	1.1e-10
5.170	1.5215876666	1.1e-10
5.180	1.5229571820	1.1e-10
5.190	1.5243239032	1.1e-10
5.200	1.5256878354	1.1e-10
5.210	1.5270489832	1.1e-10
5.220	1.5284073515	1.1e-10
5.230	1.5297629454	1.1e-10
5.240	1.5311157695	1.1e-10
5.250	1.5324658290	1.1e-10
5.260	1.5338131286	1.1e-10
5.270	1.5351576733	1.1e-10
5.280	1.5364994682	1.1e-10
5.290	1.5378385180	1.1e-10
5.300	1.5391748279	1.1e-10
5.310	1.5405084027	1.1e-10
5.320	1.5418392476	1.1e-10
5.330	1.5431673674	1.1e-10
5.340	1.5444927672	1.1e-10
5.350	1.5458154520	1.1e-10
5.360	1.5471354268	1.1e-10
5.370	1.5484526967	1.1e-10
5.380	1.5497672668	1.1e-10
5.390	1.5510791420	1.1e-10
5.400	1.5523883275	1.1e-10
5.410	1.5536948283	1.1e-10
5.420	1.5549986495	1.1e-10
5.430	1.5562997962	1.1e-10
5.440	1.5575982735	1.1e-10
5.450	1.5588940864	1.1e-10
5.460	1.5601872401	1.1e-10
5.470	1.5614777397	1.1e-10
5.480	1.5627655903	1.1e-10
5.490	1.5640507971	1.1e-10
5.500	1.5653333651	1.1e-10
5.510	1.5666132996	1.1e-10
5.520	1.5678906056	1.1e-10
5.530	1.5691652883	1.1e-10
5.540	1.5704373528	1.1e-10
5.550	1.5717068043	1.1e-10
5.560	1.5729736480	1.1e-10
5.570	1.5742378891	1.1e-10
5.580	1.5754995326	1.1e-10
5.590	1.5767585837	1.1e-10
5.600	1.5780150478	1.1e-10
5.610	1.5792689298	1.1e-10
5.620	1.5805202350	1.1e-10
5.630	1.5817689686	1.1e-10
5.640	1.5830151358	1.1e-10
5.650	1.5842587417	1.1e-10
5.660	1.5854997916	1.1e-10
5.670	1.5867382906	1.1e-10
5.680	1.5879742439	1.1e-10
5.690	1.5892076568	1.1e-10
5.700	1.5904385344	1.1e-10
5.710	1.5916668820	1.1e-10
5.720	1.5928927046	1.1e-10
5.730	1.5941160076	1.1e-10
5.740	1.5953367962	1.1e-10
5.750	1.5965550755	1.1e-10
5.760	1.5977708507	1.0e-10
5.770	1.5989841271	1.0e-10
5.780	1.6001949098	1.0e-10
5.790	1.6014032041	1.0e-10
5.800	1.6026090151	1.0e-10
5.810	1.6038123481	1.0e-10
5.820	1.6050132083	1.0e-10
5.830	1.6062116009	1.0e-10
5.840	1.6074075310	1.0e-10
5.850	1.6086010039	1.0e-10
5.860	1.6097920248	1.0e-10
5.870	1.6109805988	1.0e-10
5.880	1.6121667313	1.0e-10
5.890	1.6133504273	1.0e-10
5.900	1.6145316920	1.0e-10
5.910	1.6157105308	1.0e-10
5.920	1.6168869487	1.0e-10
5.930	1.6180609509	1.0e-10
5.940	1.6192325426	1.0e-10
5.950	1.6204017291	1.0e-10
5.960	1.6215685154	1.0e-10
5.970	1.6227329068	1.0e-10
5.980	1.6238949085	1.0e-10
5.990	1.6250545256	1.0e-10
6.000	1.6262117633	1.0e-10
6.010	1.6273666268	1.0e-10
6.020	1.6285191212	1.0e-10
6.030	1.6296692517	1.0e-10
6.040	1.6308170234	1.0e-10
6.050	1.6319624416	1.0e-10
6.060	1.6331055113	1.0e-10
6.070	1.6342462377	1.0e-10
6.080	1.6353846259	1.0e-10
6.090	1.6365206812	1.0e-10
6.100	1.6376544086	1.0e-10
6.110	1.6387858133	1.0e-10
6.120	1.6399149003	1.0e-10
6.130	1.6410416749	1.0e-10
6.140	1.6421661421	1.0e-10
6.150	1.6432883070	1.0e-10
6.160	1.6444081748	1.0e-10
6.170	1.6455257506	1.0e-10
6.180	1.6466410394	1.0e-10
6.190	1.6477540464	1.0e-10
6.200	1.6488647767	1.0e-10
6.210	1.6499732353	1.0e-10
6.220	1.6510794273	1.0e-10
6.230	1.6521833578	1.0e-10
6.240	1.6532850319	1.0e-10
6.250	1.6543844547	1.0e-10
6.260	1.6554816311	1.0e-10
6.270	1.6565765662	1.0e-10
6.280	1.6576692652	1.0e-10
6.290	1.6587597330	1.0e-10
6.300	1.6598479747	1.0e-10
6.310	1.6609339953	1.0e-10
6.320	1.6620177998	1.0e-10
6.330	1.6630993933	1.0e-10
6.340	1.6641787807	9.9e-11
6.350	1.6652559671	9.9e-11
6.360	1.6663309575	9.9e-11
6.370	1.6674037568	9.9e-11
6.380	1.6684743702	9.9e-11
6.390	1.6695428024	9.9e-11
6.400	1.6706090586	9.9e-11
6.410	1.6716731436	9.9e-11
6.420	1.6727350625	9.9e-11
6.430	1.6737948202	9.9e-11
6.440	1.6748524216	9.9e-11
6.450	1.6759078718	9.9e-11
6.460	1.6769611755	9.9e-11
6.470	1.6780123379	9.8e-11
6.480	1.6790613636	9.8e-11
6.490	1.6801082578	9.8e-11
6.500	1.6811530253	9.8e-11
6.510	1.6821956710	9.8e-11
6.520	1.6832361998	9.8e-11
6.530	1.6842746165	9.8e-11
6.540	1.6853109261	9.8e-11
6.550	1.6863451334	9.8e-11
6.560	1.6873772434	9.8e-11
6.570	1.6884072607	9.8e-11
6.580	1.6894351904	9.8e-11
6.590	1.6904610372	9.8e-11
6.600	1.6914848059	9.7e-11
6.610	1.6925065015	9.7e-11
6.620	1.6935261287	9.7e-11
6.630	1.6945436922	9.7e-11
6.640	1.6955591971	9.7e-11
6.650	1.6965726479	9.7e-11
6.660	1.6975840496	9.7e-11
6.670	1.6985934068	9.7e-11
6.680	1.6996007244	9.7e-11
6.690	1.7006060071	9.7e-11
6.700	1.7016092597	9.7e-11
6.710	1.7026104869	9.7e-11
6.720	1.7036096935	9.7e-11
6.730	1.7046068842	9.7e-11
6.740	1.7056020637	9.6e-11
6.750	1.7065952367	9.6e-11
6.760	1.7075864080	9.6e-11
6.770	1.7085755822	9.6e-11
6.780	1.7095627640	9.6e-11
6.790	1.7105479582	9.6e-11
6.800	1.7115311693	9.6e-11
6.810	1.7125124021	9.6e-11
6.820	1.7134916612	9.6e-11
6.830	1.7144689512	9.6e-11
6.840	1.7154442769	9.6e-11
6.850	1.7164176427	9.6e-11
6.860	1.7173890534	9.6e-11
6.870	1.7183585136	9.6e-11
6.880	1.7193260278	9.6e-11
6.890	1.7202916007	9.5e-11
6.900	1.7212552369	9.5e-11
6.910	1.7222169409	9.5e-11
6.920	1.7231767172	9.5e-11
6.930	1.7241345706	9.5e-11
6.940	1.7250905055	9.5e-11
6.950	1.7260445264	9.5e-11
6.960	1.7269966380	9.5e-11
6.970	1.7279468446	9.5e-11
6.980	1.7288951510	9.5e-11
6.990	1.7298415614	9.5e-11
7.000	1.7307860806	9.5e-11
7.010	1.7317287129	9.5e-11
7.020	1.7326694628	9.5e-11
7.030	1.7336083348	9.5e-11
7.040	1.7345453334	9.5e-11
7.050	1.7354804631	9.4e-11
7.060	1.7364137282	9.4e-11
7.070	1.7373451332	9.4e-11
7.080	1.7382746826	9.4e-11
7.090	1.7392023808	9.4e-11
7.100	1.7401282321	9.4e-11
7.110	1.7410522410	9.4e-11
7.120	1.7419744120	9.4e-11
7.130	1.7428947492	9.4e-11
7.140	1.7438132572	9.4e-11
7.150	1.7447299403	9.4e-11
7.160	1.7456448029	9.4e-11
7.170	1.7465578493	9.4e-11
7.180	1.7474690838	9.4e-11
7.190	1.7483785109	9.4e-11
7.200	1.7492861347	9.4e-11
7.210	1.7501919596	9.4e-11
7.220	1.7510959900	9.3e-11
7.230	1.7519982301	9.3e-11
7.240	1.7528986842	9.3e-11
7.250	1.7537973565	9.3e-11
7.260	1.7546942514	9.3e-11
7.270	1.7555893731	9.3e-11
7.280	1.7564827259	9.3e-11
7.290	1.7573743139	9.3e-11
7.300	1.7582641415	9.3e-11
7.310	1.7591522127	9.3e-11
7.320	1.7600385320	9.3e-11
7.330	1.7609231034	9.3e-11
7.340	1.7618059311	9.3e-11
7.350	1.7626870194	9.3e-11
7.360	1.7635663723	9.3e-11
7.370	1.7644439942	9.3e-11
7.380	1.7653198890	9.3e-11
7.390	1.7661940611	9.3e-11
7.400	1.7670665144	9.2e-11
7.410	1.7679372532	9.2e-11
7.420	1.7688062816	9.2e-11
7.430	1.7696736036	9.2e-11
7.440	1.7705392234	9.2e-11
7.450	1.7714031451	9.2e-11
7.460	1.7722653727	9.2e-11
7.470	1.7731259104	9.2e-11
7.480	1.7739847621	9.2e-11
7.490	1.7748419320	9.2e-11
7.500	1.7756974240	9.2e-11
7.510	1.7765512423	9.2e-11
7.520	1.7774033908	9.2e-11
7.530	1.7782538736	9.2e-11
7.540	1.7791026947	9.2e-11
7.550	1.7799498581	9.2e-11
7.560	1.7807953677	9.2e-11
7.570	1.7816392276	9.2e-11
7.580	1.7824814417	9.2e-11
7.590	1.7833220140	9.1e-11
7.600	1.7841609485	9.1e-11
7.610	1.7849982490	9.1e-11
7.620	1.7858339196	9.1e-11
7.630	1.7866679641	9.1e-11
7.640	1.7875003865	9.1e-11
7.650	1.7883311906	9.1e-11
7.660	1.7891603804	9.1e-11
7.670	1.7899879598	9.1e-11
7.680	1.7908139327	9.1e-11
7.690	1.7916383028	9.1e-11
7.700	1.7924610742	9.1e-11
7.710	1.7932822505	9.1e-11
7.720	1.7941018358	9.1e-11
7.730	1.7949198338	9.1e-11
7.740	1.7957362483	9.1e-11
7.750	1.7965510831	9.1e-11
7.760	1.7973643421	9.1e-11
7.770	1.7981760291	9.1e-11
7.780	1.7989861479	9.1e-11
7.790	1.7997947022	9.1e-11
7.800	1.8006016957	9.0e-11
7.810	1.8014071324	9.0e-11
7.820	1.8022110159	9.0e-11
7.830	1.8030133499	9.0e-11
7.840	1.8038141382	9.0e-11
7.850	1.8046133846	9.0e-11
7.860	1.8054110927	9.0e-11
7.870	1.8062072663	9.0e-11
7.880	1.8070019090	9.0e-11
7.890	1.8077950246	9.0e-11
7.900	1.8085866167	9.0e-11
7.910	1.8093766890	9.0e-11
7.920	1.8101652451	9.0e-11
7.930	1.8109522888	9.0e-11
7.940	1.8117378236	9.0e-11
7.950	1.8125218533	9.0e-11
7.960	1.8133043813	9.0e-11
7.970	1.8140854114	9.0e-11
7.980	1.8148649472	9.0e-11
7.990	1.8156429922	9.0e-11
8.000	1.8164195501	9.0e-11
8.010	1.8171946244	9.0e-11
8.020	1.8179682187	8.9e-11
8.030	1.8187403366	8.9e-11
8.040	1.8195109816	8.9e-11
8.050	1.8202801573	8.9e-11
8.060	1.8210478672	8.9e-11
8.070	1.8218141149	8.9e-11
8.080	1.8225789038	8.9e-11
8.090	1.8233422376	8.9e-11
8.100	1.8241041196	8.9e-11
8.110	1.8248645534	8.9e-11
8.120	1.8256235424	8.9e-11
8.130	1.8263810903	8.9e-11
8.140	1.8271372003	8.9e-11
8.150	1.8278918760	8.9e-11
8.160	1.8286451209	8.9e-11
8.170	1.8293969383	8.9e-11
8.180	1.8301473317	8.9e-11
8.190	1.8308963046	8.9e-11
8.200	1.8316438603	8.9e-11
8.210	1.8323900023	8.9e-11
8.220	1.8331347340	8.9e-11
8.230	1.8338780587	8.9e-11
8.240	1.8346199798	8.9e-11
8.250	1.8353605008	8.9e-11
8.260	1.8360996249	8.8e-11
8.270	1.8368373556	8.8e-11
8.280	1.8375736962	8.8e-11
8.290	1.8383086500	8.8e-11
8.300	1.8390422203	8.8e-11
8.310	1.8397744106	8.8e-11
8.320	1.8405052240	8.8e-11
8.330	1.8412346640	8.8e-11
8.340	1.8419627337	8.8e-11
8.350	1.8426894366	8.8e-11
8.360	1.8434147758	8.8e-11
8.370	1.8441387546	8.8e-11
8.380	1.8448613764	8.8e-11
